OxySoft export of:	C:\Users\NIRS\Workshop\Workshop feb
Export date:	2024/02/02 11:01:17
Start of measurement:	2024-02-02 10:40:48.690

Datafile sample rate:	50.00	Hz
Datafile duration:	510.740	s
Datafile total number of samples:	25537

Description:	A workshoop

Optode-template:	Brite 2x4 + 2x4 + 2 SSC
Optode distance (mm):	 30.00	30.00	30.00	30.00	10.00	10.00
Optode gradients (mm):	 -	-	-	-	-	-
DPF:	6.00	6.00	6.00	6.00	6.00	6.00

Device id:	25054
# Receivers:	8
# Light sources:	20
# ADC:	13

Light source wavelengths:
device	index	wavelength
1	1	762	nm
1	2	842	nm
1	3	764	nm
1	4	844	nm
1	5	751	nm
1	6	841	nm
1	7	762	nm
1	8	842	nm
1	9	762	nm
1	10	844	nm
1	11	762	nm
1	12	844	nm
1	13	764	nm
1	14	843	nm
1	15	760	nm
1	16	840	nm
1	17	760	nm
1	18	840	nm
1	19	758	nm
1	20	843	nm

Export sample rate:	50.00	Hz
Selected time span:	0	510.740
Selected time span (sample indices):	0	25536


Legend:
Column	Trace (Measurement)	Start	End
1	(Sample number)
2	Rx1 - Tx1 O2Hb (Workshop feb)	17516	23933
3	Rx1 - Tx1 HHb (Workshop feb)	17516	23933
4	Rx1 - Tx3 O2Hb (Workshop feb)	17516	23933
5	Rx1 - Tx3 HHb (Workshop feb)	17516	23933
6	Rx2 - Tx1 O2Hb (Workshop feb)	17516	23933
7	Rx2 - Tx1 HHb (Workshop feb)	17516	23933
8	Rx2 - Tx3 O2Hb (Workshop feb)	17516	23933
9	Rx2 - Tx3 HHb (Workshop feb)	17516	23933
10	Rx3 - Tx4 O2Hb (Workshop feb)	17516	23933
11	Rx3 - Tx4 HHb (Workshop feb)	17516	23933
12	Rx3 - Tx5 O2Hb (Workshop feb)	17516	23933
13	Rx3 - Tx5 HHb (Workshop feb)	17516	23933
14	Rx4 - Tx4 O2Hb (Workshop feb)	17516	23933
15	Rx4 - Tx4 HHb (Workshop feb)	17516	23933
16	Rx4 - Tx5 O2Hb (Workshop feb)	17516	23933
17	Rx4 - Tx5 HHb (Workshop feb)	17516	23933
18	Rx7 - Tx9 O2Hb (Workshop feb)	17516	23933
19	Rx7 - Tx9 HHb (Workshop feb)	17516	23933
20	Rx7 - Tx10 O2Hb (Workshop feb)	17516	23933
21	Rx7 - Tx10 HHb (Workshop feb)	17516	23933
22	Rx8 - Tx9 O2Hb (Workshop feb)	17516	23933
23	Rx8 - Tx9 HHb (Workshop feb)	17516	23933
24	Rx8 - Tx10 O2Hb (Workshop feb)	17516	23933
25	Rx8 - Tx10 HHb (Workshop feb)	17516	23933
26	Rx5 - Tx6 O2Hb (Workshop feb)	17516	23933
27	Rx5 - Tx6 HHb (Workshop feb)	17516	23933
28	Rx5 - Tx8 O2Hb (Workshop feb)	17516	23933
29	Rx5 - Tx8 HHb (Workshop feb)	17516	23933
30	Rx6 - Tx6 O2Hb (Workshop feb)	17516	23933
31	Rx6 - Tx6 HHb (Workshop feb)	17516	23933
32	Rx6 - Tx8 O2Hb (Workshop feb)	17516	23933
33	Rx6 - Tx8 HHb (Workshop feb)	17516	23933
34	Rx1 - Tx2 O2Hb (Workshop feb)	17516	23933
35	Rx1 - Tx2 HHb (Workshop feb)	17516	23933
36	Rx5 - Tx7 O2Hb (Workshop feb)	17516	23933
37	Rx5 - Tx7 HHb (Workshop feb)	17516	23933
38	(Event)


1	2	3	4	5	6	7	8	9	10	11	12	13	14	15	16	17	18	19	20	21	22	23	24	25	26	27	28	29	30	31	32	33	34	35	36	37	38
 17516	-0.97610	 0.26128	-0.48044	-0.02336	-2.12929	-0.50286	-0.67290	-0.34899	-2.59845	-0.57845	 1.93146	 1.52066	-0.91254	 0.06641	-3.04531	-1.11432	 0.73636	 0.72403	-2.96095	-1.27966	-0.22922	 1.39472	-2.54796	-2.85849	 1.56214	 0.42847	 2.48909	-0.88748	 1.09199	-0.33609	-1.84252	-1.59867	 0.00876	 0.00800	-3.16653	 1.26279	
 17517	-1.08153	 0.30086	-0.57364	 0.00960	-2.17285	-0.51021	-0.70169	-0.35479	-2.63172	-0.57756	 1.92257	 1.51146	-0.94529	 0.08847	-3.06203	-1.12936	 0.72356	 0.72371	-2.96095	-1.27966	-0.26877	 1.38966	-2.54796	-2.85849	 1.54528	 0.42831	 2.47975	-0.88432	 1.09199	-0.33609	-1.85037	-1.59581	 0.00876	 0.00800	-3.18963	 1.27188	
 17518	-1.08153	 0.30086	-0.57364	 0.00960	-2.21218	-0.51912	-0.73789	-0.34998	-2.65060	-0.58785	 1.92007	 1.50405	-0.95949	 0.08403	-3.09095	-1.13981	 0.69727	 0.73328	-2.96095	-1.27966	-0.29666	 1.38038	-2.54796	-2.85849	 1.52844	 0.42815	 2.47640	-0.88310	 1.07282	-0.35355	-1.85959	-1.59373	 0.00876	 0.00800	-3.18583	 1.27038	
 17519	-1.18658	 0.34029	-0.66656	 0.04247	-2.24658	-0.52196	-0.75203	-0.36094	-2.67161	-0.58575	 1.92007	 1.50405	-0.95949	 0.08403	-3.09766	-1.16916	 0.69325	 0.72976	-3.17312	-1.20430	-0.31294	 1.36690	-0.87662	-4.51515	 1.51926	 0.43159	 2.48349	-0.88544	 1.03060	-0.33770	-1.86234	-1.59532	 0.00876	 0.00800	-3.14733	 1.25523	
 17520	-1.18658	 0.34029	-0.75660	 0.17064	-2.25964	-0.52493	-0.75928	-0.35838	-2.66827	-0.58122	 1.93680	 1.50195	-0.94775	 0.07963	-3.11435	-1.18411	 0.69254	 0.73999	-3.17312	-1.20430	-0.32685	 1.36226	-0.87662	-4.51515	 1.53355	 0.43056	 2.50501	-0.89166	 0.98843	-0.32187	-1.85851	-1.59800	 0.00810	 0.00895	-3.07551	 1.22839	
 17521	-1.08153	 0.30086	-0.66368	 0.13778	-2.23836	-0.52505	-0.73060	-0.35255	-2.64057	-0.57424	 1.95729	 1.51097	-0.91254	 0.06641	-3.11658	-1.19388	 0.72214	 0.74417	-3.50917	-0.72177	-0.31294	 1.36690	-1.56431	-4.27090	 1.56780	 0.43500	 2.54172	-0.90042	 0.98843	-0.32187	-1.84147	-1.60292	 0.00945	 0.00841	-2.97854	 1.19165	
 17522	-1.08153	 0.30086	-0.66109	 0.23380	-2.17697	-0.50867	-0.66599	-0.33542	-2.58501	-0.56027	 1.99460	 1.51787	-0.87229	 0.07085	-3.10441	-1.19845	 0.75987	 0.75542	-3.50917	-0.72177	-0.26427	 1.35888	-1.56431	-4.27090	 1.61961	 0.44371	 2.59049	-0.90894	 1.00748	-0.30436	-1.81610	-1.60311	 0.00875	 0.00943	-2.87058	 1.15133	
 17523	-1.07583	 0.40388	-0.47374	 0.16754	-2.07202	-0.48872	-0.55745	-0.31767	-2.50470	-0.54385	 2.02932	 1.53416	-0.82015	 0.07085	-3.08004	-1.20760	 0.81936	 0.76379	-3.50917	-0.72177	-0.20834	 1.37738	-1.56431	-4.27090	 1.68800	 0.44843	 2.64290	-0.91417	 1.06882	-0.30268	-1.78252	-1.60113	 0.00875	 0.00943	-2.77412	 1.11554	
 17524	-0.86381	 0.32429	-0.37637	 0.23065	-1.94854	-0.46355	-0.43376	-0.28892	-2.41506	-0.53078	 2.07326	 1.54284	-0.75603	 0.06638	-3.05339	-1.20700	 0.86545	 0.78212	-3.29699	-0.79713	-0.12890	 1.38743	-1.56431	-4.27090	 1.74942	 0.45364	 2.69076	-0.91402	 1.13038	-0.30104	-1.74876	-1.59659	 0.00875	 0.00943	-2.70120	 1.08753	
 17525	-0.75722	 0.28427	-0.18657	 0.16352	-1.82034	-0.44379	-0.31642	-0.26569	-2.32281	-0.53027	 2.11083	 1.54976	-0.71291	 0.07965	-3.02667	-1.20643	 0.91237	 0.79017	-3.29699	-0.79713	-0.04665	 1.40635	-0.87662	-4.51515	 1.79397	 0.45871	 2.73016	-0.91008	 1.17285	-0.31698	-1.71892	-1.59191	 0.00875	 0.00943	-2.65747	 1.07105	
 17526	-0.75069	 0.38774	-0.09119	 0.12979	-1.71395	-0.43161	-0.22037	-0.25094	-2.26061	-0.52428	 2.14326	 1.55864	-0.67219	 0.08403	-3.00989	-1.19150	 0.94236	 0.79435	-3.08322	-0.87306	 0.02422	 1.42957	-0.87662	-4.51515	 1.81889	 0.46244	 2.75959	-0.90388	 1.21538	-0.33295	-1.69708	-1.58689	 0.00875	 0.00943	-2.63483	 1.06283	
 17527	-0.75069	 0.38774	-0.18297	 0.26043	-1.64676	-0.42064	-0.15354	-0.24201	-2.22319	-0.52069	 2.16798	 1.56200	-0.66710	 0.10181	-2.98312	-1.19092	 0.95942	 0.79822	-3.08322	-0.87306	 0.08116	 1.44819	-1.15557	-3.35303	 1.82672	 0.46605	 2.78010	-0.89696	 1.21538	-0.33295	-1.68063	-1.58250	 0.00945	 0.00841	-2.62908	 1.06057	
 17528	-0.64331	 0.34743	-0.09119	 0.12979	-1.61072	-0.41403	-0.12377	-0.23623	-2.20166	-0.52289	 2.18621	 1.56360	-0.65264	 0.10624	-2.96858	-1.18575	 0.97719	 0.79175	-3.08322	-0.87306	 0.11215	 1.46648	-1.15557	-3.35303	 1.82932	 0.46726	 2.79446	-0.89151	 1.21538	-0.33295	-1.66823	-1.57794	 0.00810	 0.00895	-2.62518	 1.05904	
 17529	-0.54287	 0.20380	-0.09119	 0.12979	-1.60181	-0.41333	-0.12390	-0.22802	-2.19819	-0.51830	 2.19797	 1.56340	-0.63817	 0.11067	-2.95403	-1.18056	 0.98130	 0.79530	-3.08322	-0.87306	 0.13829	 1.46683	-1.86027	-3.10274	 1.82467	 0.46900	 2.80565	-0.88815	 1.17285	-0.31698	-1.65719	-1.57416	 0.00810	 0.00895	-2.62394	 1.05929	
 17530	-0.54287	 0.20380	-0.09119	 0.12979	-1.60647	-0.41562	-0.12377	-0.23623	-2.20378	-0.51031	 2.20321	 1.56143	-0.63306	 0.12850	-2.95174	-1.17077	 0.99018	 0.79206	-3.08322	-0.87306	 0.15014	 1.46252	-2.54796	-2.85849	 1.82205	 0.46780	 2.81357	-0.88615	 1.17285	-0.31698	-1.64878	-1.56942	 0.00810	 0.00895	-2.62129	 1.05750	
 17531	-0.54287	 0.20380	-0.18657	 0.16352	-1.62429	-0.41699	-0.13867	-0.23912	-2.21282	-0.50692	 2.19274	 1.56536	-0.63052	 0.13744	-2.93946	-1.17538	 0.99429	 0.79561	-3.08322	-0.87306	 0.15014	 1.46252	-3.21949	-2.61998	 1.81480	 0.46834	 2.82018	-0.88531	 1.21538	-0.33295	-1.63774	-1.56564	 0.00810	 0.00895	-2.61934	 1.05674	
 17532	-0.75069	 0.38774	-0.18657	 0.16352	-1.64633	-0.41678	-0.16852	-0.23671	-2.22187	-0.50352	 2.18750	 1.56733	-0.62797	 0.14637	-2.94175	-1.18517	 0.99429	 0.79561	-2.74717	-1.35558	 0.13829	 1.46683	-3.21949	-2.61998	 1.80755	 0.46888	 2.82573	-0.88477	 1.21538	-0.33295	-1.63056	-1.55914	 0.00810	 0.00895	-2.61673	 1.05502	
 17533	-0.75069	 0.38774	-0.18657	 0.16352	-1.67300	-0.41884	-0.18324	-0.24779	-2.23994	-0.49674	 2.17703	 1.57126	-0.62797	 0.14637	-2.95631	-1.19035	 0.98471	 0.80919	-2.74717	-1.35558	 0.11215	 1.46648	-2.89190	-3.79938	 1.80030	 0.46942	 2.83006	-0.88425	 1.25798	-0.34894	-1.62074	-1.55358	 0.00945	 0.00841	-2.61478	 1.05425	
 17534	-0.64331	 0.34743	-0.18657	 0.16352	-1.69962	-0.42092	-0.21303	-0.24540	-2.24338	-0.50134	 2.17703	 1.57126	-0.62797	 0.14637	-2.97087	-1.19552	 0.98880	 0.81275	-2.74717	-1.35558	 0.09787	 1.46181	-2.23584	-4.03239	 1.79304	 0.46996	 2.83445	-0.88329	 1.23474	-0.31543	-1.61356	-1.54709	 0.00945	 0.00841	-2.60318	 1.04969	
 17535	-0.64331	 0.34743	-0.09119	 0.12979	-1.72620	-0.42300	-0.23531	-0.24566	-2.24682	-0.50593	 2.17703	 1.57126	-0.63735	 0.15978	-2.97545	-1.21504	 0.98811	 0.82311	-2.53180	-1.43208	 0.07179	 1.46145	-2.23584	-4.03239	 1.78579	 0.47050	 2.83902	-0.88193	 1.23474	-0.31543	-1.60251	-1.54328	 0.00945	 0.00841	-2.58259	 1.04227	
 17536	-0.64331	 0.34743	-0.09119	 0.12979	-1.74810	-0.42281	-0.25024	-0.24038	-2.24124	-0.51391	 2.18750	 1.56733	-0.62541	 0.15530	-3.00222	-1.21560	 0.99632	 0.83022	-2.86785	-0.94955	 0.06935	 1.45248	-1.56431	-4.27090	 1.78375	 0.47345	 2.84382	-0.87973	 1.23474	-0.31543	-1.59531	-1.53677	 0.00875	 0.00943	-2.55611	 1.03259	
 17537	-0.74449	 0.49211	-0.18657	 0.16352	-1.75736	-0.42736	-0.25770	-0.23774	-2.23780	-0.50932	 2.19669	 1.55967	-0.61092	 0.15977	-3.01673	-1.22076	 1.00933	 0.83054	-2.86785	-0.94955	 0.04575	 1.46107	-0.87662	-4.51515	 1.78635	 0.47466	 2.84978	-0.87792	 1.19214	-0.29944	-1.58827	-1.53282	 0.00875	 0.00943	-2.52972	 1.02294	
 17538	-0.85187	 0.53242	-0.18657	 0.16352	-1.76619	-0.42806	-0.25770	-0.23774	-2.22531	-0.50812	 2.20065	 1.55396	-0.59642	 0.16424	-3.04345	-1.22133	 1.02235	 0.83086	-2.86785	-0.94955	 0.05511	 1.44782	-0.87662	-4.51515	 1.79100	 0.47291	 2.85566	-0.87542	 1.21538	-0.33295	-1.58265	-1.52963	 0.00875	 0.00943	-2.50514	 1.01396	
 17539	-0.75069	 0.38774	-0.18657	 0.16352	-1.77083	-0.43033	-0.26502	-0.24328	-2.21841	-0.49894	 2.19413	 1.55218	-0.56993	 0.16421	-3.04799	-1.24079	 1.03127	 0.82761	-2.86785	-0.94955	 0.05266	 1.43888	-0.87662	-4.51515	 1.78895	 0.47586	 2.86268	-0.87332	 1.17285	-0.31698	-1.58233	-1.52452	 0.00875	 0.00943	-2.47866	 1.00427	
 17540	-0.85766	 0.42790	-0.28163	 0.19714	-1.77964	-0.43103	-0.27233	-0.24882	-2.20591	-0.49774	 2.18505	 1.54295	-0.55539	 0.16868	-3.06474	-1.25564	 1.02715	 0.82405	-3.08322	-0.87306	 0.04088	 1.44317	-1.86027	-3.10274	 1.78635	 0.47466	 2.86917	-0.86984	 1.17285	-0.31698	-1.57949	-1.52294	 0.00945	 0.00841	-2.44709	 0.99328	
 17541	-0.86381	 0.32429	-0.28519	 0.10085	-1.79308	-0.43401	-0.28694	-0.25990	-2.19899	-0.48854	 2.17077	 1.53568	-0.55283	 0.17765	-3.06929	-1.27504	 1.02304	 0.82049	-2.74717	-1.35558	 0.02909	 1.44746	-1.86027	-3.10274	 1.76981	 0.47868	 2.87628	-0.86544	 1.19606	-0.35045	-1.58322	-1.51766	 0.00810	 0.00895	-2.40772	 0.97921	
 17542	-0.76408	 0.18168	-0.28519	 0.10085	-1.81113	-0.43925	-0.30898	-0.26832	-2.19553	-0.48394	 2.15001	 1.52664	-0.56481	 0.18215	-3.08602	-1.28984	 1.00591	 0.81662	-2.74717	-1.35558	 0.02666	 1.43851	-1.86027	-3.10274	 1.75274	 0.47854	 2.88517	-0.85936	 1.15359	-0.33450	-1.58183	-1.51686	 0.00810	 0.00895	-2.36435	 0.96357	
 17543	-0.87028	 0.22155	-0.28900	 0.00526	-1.83753	-0.44134	-0.33812	-0.29042	-2.18647	-0.48734	 2.12659	 1.52703	-0.58876	 0.19114	-3.10044	-1.29496	 0.98471	 0.80919	-3.08322	-0.87306	 0.01246	 1.43386	-2.54796	-2.85849	 1.73309	 0.47720	 2.89434	-0.85241	 1.13434	-0.35198	-1.57903	-1.51527	 0.00810	 0.00895	-2.33268	 0.95254	
 17544	-0.87028	 0.22155	-0.28900	 0.00526	-1.86890	-0.44956	-0.38955	-0.29648	-2.19553	-0.48394	 2.10842	 1.52545	-0.61777	 0.18217	-3.11258	-1.29040	 0.96352	 0.80177	-2.74717	-1.35558	-0.00173	 1.42920	-1.56431	-4.27090	 1.71550	 0.47291	 2.90197	-0.84632	 1.09199	-0.33609	-1.57355	-1.51465	 0.00810	 0.00895	-2.31790	 0.94746	
 17545	-0.87028	 0.22155	-0.38313	 0.03855	-1.90478	-0.46004	-0.42591	-0.31590	-2.22055	-0.48634	 2.08760	 1.53326	-0.64674	 0.17321	-3.10044	-1.29496	 0.93349	 0.79758	-2.74717	-1.35558	-0.01834	 1.41563	-1.56431	-4.27090	 1.69331	 0.47035	 2.90606	-0.84244	 1.03060	-0.33770	-1.56541	-1.51500	 0.00810	 0.00895	-2.32374	 0.94976	
 17546	-0.87028	 0.22155	-0.38313	 0.03855	-1.95311	-0.46581	-0.47709	-0.32196	-2.25240	-0.49795	 2.07199	 1.53912	-0.68757	 0.16875	-3.09590	-1.27559	 0.90759	 0.79694	-2.74717	-1.35558	-0.05595	 1.41952	-1.56431	-4.27090	 1.67115	 0.46779	 2.90530	-0.84076	 1.01152	-0.35516	-1.56119	-1.51260	 0.00810	 0.00895	-2.33853	 0.95484	
 17547	-0.87028	 0.22155	-0.38313	 0.03855	-1.99751	-0.47700	-0.52090	-0.32256	-2.29321	-0.50616	 2.06033	 1.53930	-0.72579	 0.17320	-3.09136	-1.25621	 0.88580	 0.79984	-2.74717	-1.35558	-0.08180	 1.41915	-0.64857	-5.58581	 1.65159	 0.46644	 2.90239	-0.84087	 1.03456	-0.38839	-1.55572	-1.51198	 0.00810	 0.00895	-2.35608	 0.96175	
 17548	-0.97610	 0.26128	-0.47695	 0.07173	-2.03351	-0.49128	-0.55712	-0.33385	-2.33050	-0.50979	 2.04348	 1.54143	-0.75456	 0.16424	-3.08908	-1.24651	 0.85925	 0.80951	-2.74717	-1.35558	-0.10760	 1.41875	-1.56431	-4.27090	 1.63205	 0.46508	 2.89785	-0.84108	 0.99247	-0.37259	-1.55292	-1.51039	 0.00664	 0.00952	-2.36572	 0.96554	
 17549	-1.08153	 0.30086	-0.57047	 0.10481	-2.07279	-0.49636	-0.59341	-0.33706	-2.36431	-0.50883	 2.02539	 1.53983	-0.77144	 0.15084	-3.07691	-1.25107	 0.83752	 0.81239	-3.29699	-0.79713	-0.12409	 1.40520	-1.56431	-4.27090	 1.61715	 0.46199	 2.89265	-0.84036	 0.99247	-0.37259	-1.54871	-1.50798	 0.00664	 0.00952	-2.36254	 0.96503	
 17550	-1.18658	 0.34029	-0.57364	 0.00960	-2.10745	-0.49919	-0.62965	-0.34027	-2.38011	-0.51462	 2.00856	 1.54195	-0.78829	 0.13746	-3.08908	-1.24651	 0.82057	 0.80851	-3.29699	-0.79713	-0.14983	 1.40481	-1.56431	-4.27090	 1.60022	 0.46184	 2.88606	-0.83890	 0.99247	-0.37259	-1.54570	-1.50384	 0.00664	 0.00952	-2.35497	 0.96422	
 17551	-1.08758	 0.19873	-0.57364	 0.00960	-2.13793	-0.50357	-0.65831	-0.35415	-2.40144	-0.51248	 1.99176	 1.54406	-0.81446	 0.13744	-3.08908	-1.24651	 0.80364	 0.80463	-3.29699	-0.79713	-0.17554	 1.40441	-1.56431	-4.27090	 1.57871	 0.46341	 2.87951	-0.83744	 1.01548	-0.40577	-1.54132	-1.49889	 0.00664	 0.00952	-2.34854	 0.96312	
 17552	-1.19227	 0.23803	-0.57364	 0.00960	-2.16834	-0.50795	-0.68712	-0.35995	-2.42275	-0.51034	 1.98657	 1.54601	-0.85239	 0.14184	-3.11116	-1.22766	 0.79149	 0.79399	-3.08322	-0.87306	-0.19195	 1.39089	-1.56431	-4.27090	 1.56182	 0.46324	 2.87269	-0.83683	 0.97343	-0.38999	-1.53831	-1.49475	 0.00664	 0.00952	-2.34920	 0.96407	
 17553	-1.19227	 0.23803	-0.57364	 0.00960	-2.19832	-0.50855	-0.71606	-0.35770	-2.43511	-0.51155	 1.99300	 1.54780	-0.86916	 0.12848	-3.11116	-1.22766	 0.77864	 0.79365	-3.08322	-0.87306	-0.21759	 1.39048	-1.56431	-4.27090	 1.54749	 0.46429	 2.86802	-0.83747	 0.99640	-0.42311	-1.53266	-1.49157	 0.00664	 0.00952	-2.35895	 0.96791	
 17554	-1.19227	 0.23803	-0.57364	 0.00960	-2.21555	-0.50997	-0.72314	-0.36318	-2.43511	-0.51155	 2.00195	 1.55702	-0.88341	 0.12401	-3.10890	-1.21792	 0.77388	 0.80040	-3.08322	-0.87306	-0.21997	 1.38161	-1.56431	-4.27090	 1.55209	 0.46256	 2.86823	-0.83895	 0.99640	-0.42311	-1.52438	-1.48933	 0.00810	 0.00895	-2.37055	 0.97247	
 17555	-1.18658	 0.34029	-0.57047	 0.10481	-2.20656	-0.50546	-0.70897	-0.35222	-2.42275	-0.51034	 2.02773	 1.56414	-0.88341	 0.12401	-3.08230	-1.21733	 0.79482	 0.80784	-3.08322	-0.87306	-0.21997	 1.38161	-2.23584	-4.03239	 1.57871	 0.46341	 2.87617	-0.83996	 1.01548	-0.40577	-1.50666	-1.48921	 0.00810	 0.00895	-2.37379	 0.97306	
 17556	-1.18658	 0.34029	-0.47695	 0.07173	-2.15483	-0.50118	-0.65139	-0.34059	-2.38566	-0.50668	 2.05875	 1.56931	-0.84556	 0.11962	-3.06559	-1.20242	 0.83680	 0.82272	-3.08322	-0.87306	-0.19434	 1.38202	-2.23584	-4.03239	 1.62079	 0.47148	 2.89315	-0.83984	 1.03456	-0.38839	-1.48345	-1.48847	 0.00876	 0.00800	-2.36138	 0.96743	
 17557	-1.08153	 0.30086	-0.47374	 0.16754	-2.07163	-0.48491	-0.55729	-0.32576	-2.33265	-0.49724	 2.08982	 1.57449	-0.80512	 0.12409	-3.02667	-1.20643	 0.89180	 0.83797	-3.29699	-0.79713	-0.14296	 1.38280	-2.23584	-4.03239	 1.67740	 0.47851	 2.91645	-0.83781	 1.11511	-0.36942	-1.45204	-1.48809	 0.01011	 0.00746	-2.33685	 0.95852	
 17558	-1.07583	 0.40388	-0.37637	 0.23065	-1.96185	-0.46652	-0.44805	-0.30807	-2.27046	-0.49117	 2.12223	 1.58340	-0.76209	 0.13747	-3.00989	-1.19150	 0.94293	 0.84965	-3.29699	-0.79713	-0.07734	 1.38818	-2.23584	-4.03239	 1.73419	 0.48551	 2.94202	-0.83471	 1.17675	-0.36791	-1.42451	-1.48497	 0.00945	 0.00841	-2.30642	 0.94723	
 17559	-0.97001	 0.36416	-0.28163	 0.19714	-1.84714	-0.44973	-0.34555	-0.28779	-2.20458	-0.48054	 2.15216	 1.58482	-0.70957	 0.13747	-2.97087	-1.19552	 0.98599	 0.85422	-3.29699	-0.79713	-0.03249	 1.41098	-1.56431	-4.27090	 1.77407	 0.49236	 2.96484	-0.83131	 1.17285	-0.31698	-1.40102	-1.48167	 0.00945	 0.00841	-2.27604	 0.93601	
 17560	-0.86381	 0.32429	-0.27834	 0.29416	-1.75818	-0.43507	-0.25715	-0.27044	-2.15447	-0.47573	 2.17166	 1.59017	-0.68072	 0.14639	-2.94405	-1.19495	 1.02506	 0.85519	-3.50917	-0.72177	 0.02179	 1.42064	-2.54796	-2.85849	 1.80102	 0.49317	 2.98300	-0.82855	 1.21538	-0.33295	-1.38571	-1.47803	 0.00875	 0.00943	-2.24826	 0.92651	
 17561	-0.86381	 0.32429	-0.27834	 0.29416	-1.70003	-0.42479	-0.20542	-0.25623	-2.11679	-0.47213	 2.19388	 1.58605	-0.65182	 0.15532	-2.92947	-1.18978	 1.04703	 0.85226	-3.17312	-1.20430	 0.05266	 1.43888	-2.54796	-2.85849	 1.80828	 0.49263	 2.99675	-0.82676	 1.21538	-0.33295	-1.37732	-1.47582	 0.00875	 0.00943	-2.22235	 0.91774	
 17562	-0.75722	 0.28427	-0.27834	 0.29416	-1.67340	-0.42272	-0.18324	-0.24779	-2.09164	-0.46973	 2.20167	 1.59158	-0.61603	 0.14189	-2.90258	-1.18922	 1.06009	 0.85258	-3.17312	-1.20430	 0.06935	 1.45248	-2.54796	-2.85849	 1.80362	 0.49438	 3.00660	-0.82495	 1.28119	-0.38241	-1.37039	-1.47439	 0.00875	 0.00943	-2.19643	 0.90897	
 17563	-0.86381	 0.32429	-0.18657	 0.16352	-1.66876	-0.42043	-0.17577	-0.25044	-2.07905	-0.46853	 2.20820	 1.59336	-0.60153	 0.14634	-2.88797	-1.18405	 1.07316	 0.85289	-2.96095	-1.27966	 0.09297	 1.44388	-1.56431	-4.27090	 1.79637	 0.49491	 3.01624	-0.82400	 1.23859	-0.36641	-1.36485	-1.47376	 0.00810	 0.00895	-2.17074	 0.90246	
 17564	-0.86381	 0.32429	-0.28163	 0.19714	-1.67340	-0.42272	-0.19073	-0.24514	-2.06992	-0.47196	 2.21343	 1.59140	-0.58958	 0.14185	-2.86334	-1.19330	 1.07316	 0.85289	-3.29699	-0.79713	 0.10477	 1.43959	-1.56431	-4.27090	 1.79172	 0.49666	 3.02446	-0.82230	 1.23859	-0.36641	-1.35931	-1.47314	 0.00810	 0.00895	-2.14437	 0.89711	
 17565	-0.86381	 0.32429	-0.28163	 0.19714	-1.67340	-0.42272	-0.19073	-0.24514	-2.06992	-0.47196	 2.21343	 1.59140	-0.58958	 0.14185	-2.86334	-1.19330	 1.07316	 0.85289	-3.29699	-0.79713	 0.10477	 1.43959	-1.56431	-4.27090	 1.79172	 0.49666	 3.02446	-0.82230	 1.23859	-0.36641	-1.35931	-1.47314	 0.00810	 0.00895	-2.14437	 0.89711	
 17566	-0.86381	 0.32429	-0.28163	 0.19714	-1.70889	-0.42547	-0.22011	-0.26729	-2.07554	-0.46392	 2.19644	 1.59355	-0.59897	 0.15528	-2.86103	-1.18350	 1.06490	 0.84576	-3.21262	-0.45449	 0.11413	 1.42633	-1.56431	-4.27090	 1.78187	 0.49599	 3.03812	-0.81975	 1.15359	-0.33450	-1.34967	-1.47269	 0.00810	 0.00895	-2.11504	 0.89562	
 17567	-0.96425	 0.46791	-0.09539	 0.03372	-1.72701	-0.43073	-0.24983	-0.26490	-2.08466	-0.46050	 2.17817	 1.59195	-0.61092	 0.15977	-2.85871	-1.17369	 1.04773	 0.84187	-3.21262	-0.45449	 0.11413	 1.42633	-1.56431	-4.27090	 1.77202	 0.49532	 3.04227	-0.81892	 1.17675	-0.36791	-1.35111	-1.47350	 0.00739	 0.00996	-2.11393	 0.89809	
 17568	-1.07045	 0.50778	-0.09539	 0.03372	-1.74512	-0.43597	-0.27191	-0.27333	-2.09377	-0.45708	 2.15469	 1.59232	-0.62541	 0.15530	-2.85637	-1.16390	 1.03538	 0.83118	-3.42799	-0.37800	 0.11413	 1.42633	-2.54796	-2.85849	 1.76217	 0.49465	 3.04429	-0.81754	 1.15746	-0.38532	-1.35396	-1.47508	 0.00739	 0.00996	-2.11712	 0.89861	
 17569	-1.07583	 0.40388	-0.09539	 0.03372	-1.76281	-0.43735	-0.28666	-0.27622	-2.10073	-0.46632	 2.14044	 1.58500	-0.63990	 0.15085	-2.85406	-1.15407	 1.01343	 0.83410	-3.29699	-0.79713	 0.10233	 1.43063	-2.54796	-2.85849	 1.75958	 0.49344	 3.04655	-0.81648	 1.15746	-0.38532	-1.35555	-1.47846	 0.00739	 0.00996	-2.12412	 0.89850	
 17570	-1.07583	 0.40388	-0.19045	 0.06734	-1.76783	-0.44348	-0.30155	-0.27095	-2.11331	-0.46752	 2.12619	 1.57769	-0.65437	 0.14639	-2.83708	-1.13904	 1.00933	 0.83054	-3.29699	-0.79713	 0.10233	 1.43063	-1.86027	-3.10274	 1.75493	 0.49518	 3.04919	-0.81534	 1.15746	-0.38532	-1.35699	-1.47926	 0.00810	 0.00895	-2.13041	 0.89738	
 17571	-1.07583	 0.40388	-0.09984	-0.06165	-1.77245	-0.44576	-0.29397	-0.28174	-2.12589	-0.46871	 2.11716	 1.56844	-0.66882	 0.14192	-2.82009	-1.12399	 1.00933	 0.83054	-3.29699	-0.79713	 0.09297	 1.44388	-1.86027	-3.10274	 1.75753	 0.49639	 3.05201	-0.81448	 1.15746	-0.38532	-1.35826	-1.47748	 0.00810	 0.00895	-2.13742	 0.89728	
 17572	-0.97001	 0.36416	-0.09984	-0.06165	-1.77245	-0.44576	-0.30155	-0.27095	-2.13846	-0.46991	 2.10941	 1.56293	-0.67135	 0.13300	-2.79300	-1.12343	 1.01343	 0.83410	-3.08322	-0.87306	 0.09297	 1.44388	-1.86027	-3.10274	 1.75807	 0.50055	 3.05494	-0.81436	 1.13434	-0.35198	-1.35537	-1.47590	 0.00876	 0.00800	-2.13924	 0.89582	
 17573	-0.97001	 0.36416	-0.19045	 0.06734	-1.77666	-0.44418	-0.30155	-0.27095	-2.14753	-0.46651	 2.10561	 1.55172	-0.67135	 0.13300	-2.79068	-1.11356	 1.02235	 0.83086	-3.08322	-0.87306	 0.09297	 1.44388	-1.86027	-3.10274	 1.75603	 0.50350	 3.05682	-0.81459	 1.13434	-0.35198	-1.35254	-1.47429	 0.00876	 0.00800	-2.13729	 0.89506	
 17574	-0.97001	 0.36416	-0.19045	 0.06734	-1.78128	-0.44645	-0.30898	-0.26832	-2.14753	-0.46651	 2.09660	 1.54249	-0.66882	 0.14192	-2.79068	-1.11356	 1.02646	 0.83442	-3.08322	-0.87306	 0.10477	 1.43959	-1.86027	-3.10274	 1.74934	 0.50820	 3.05690	-0.81531	 1.13434	-0.35198	-1.35362	-1.46994	 0.00810	 0.00895	-2.13339	 0.89352	
 17575	-0.97001	 0.36416	-0.19045	 0.06734	-1.79852	-0.44398	-0.31627	-0.27385	-2.13846	-0.46991	 2.08113	 1.53149	-0.66628	 0.15086	-2.79300	-1.12343	 1.02165	 0.84124	-2.86785	-0.94955	 0.10233	 1.43063	-1.86027	-3.10274	 1.73951	 0.50752	 3.05571	-0.81606	 1.15746	-0.38532	-1.35756	-1.46718	 0.00810	 0.00895	-2.13268	 0.89250	
 17576	-0.97001	 0.36416	-0.19045	 0.06734	-1.82034	-0.44379	-0.33841	-0.27413	-2.13498	-0.46530	 2.06174	 1.52618	-0.65182	 0.15532	-2.80771	-1.12863	 1.01273	 0.84448	-3.21262	-0.45449	 0.07871	 1.43923	-1.86027	-3.10274	 1.72709	 0.50564	 3.05322	-0.81680	 1.15746	-0.38532	-1.36164	-1.46702	 0.00810	 0.00895	-2.13715	 0.89284	
 17577	-0.97610	 0.26128	-0.28519	 0.10085	-1.84674	-0.44589	-0.35296	-0.28517	-2.12589	-0.46871	 2.03592	 1.51911	-0.63735	 0.15978	-2.81236	-1.14832	 0.99491	 0.85097	-3.21262	-0.45449	 0.05266	 1.43888	-1.86027	-3.10274	 1.71468	 0.50375	 3.05026	-0.81807	 1.11511	-0.36942	-1.37128	-1.46747	 0.00810	 0.00895	-2.14748	 0.89547	
 17578	-0.97610	 0.26128	-0.37962	 0.13425	-1.88186	-0.44869	-0.38986	-0.28021	-2.12937	-0.47332	 2.01924	 1.50443	-0.63735	 0.15978	-2.81702	-1.16798	 0.98599	 0.85422	-3.56658	 0.05376	 0.01489	 1.44280	-1.86027	-3.10274	 1.69970	 0.50064	 3.04633	-0.81921	 1.11511	-0.36942	-1.38913	-1.46757	 0.00664	 0.00952	-2.16099	 0.89862	
 17579	-0.97610	 0.26128	-0.47374	 0.16754	-1.91732	-0.45533	-0.42653	-0.28340	-2.14539	-0.47913	 1.99350	 1.49737	-0.63735	 0.15978	-2.84404	-1.16853	 0.97709	 0.85746	-3.56658	 0.05376	-0.01349	 1.43348	-2.54796	-2.85849	 1.68009	 0.49928	 3.04316	-0.82018	 1.11511	-0.36942	-1.40977	-1.46928	 0.00664	 0.00952	-2.17397	 0.90304	
 17580	-0.97610	 0.26128	-0.38313	 0.03855	-1.95271	-0.46198	-0.45576	-0.28921	-2.17049	-0.48153	 1.97045	 1.48096	-0.64928	 0.16426	-2.84636	-1.17833	 0.97299	 0.85389	-3.56658	 0.05376	-0.04180	 1.42417	-2.54796	-2.85849	 1.66772	 0.49738	 3.04129	-0.81998	 1.07282	-0.35355	-1.43860	-1.47063	 0.00730	 0.00857	-2.18177	 0.90611	
 17581	-1.08153	 0.30086	-0.38313	 0.03855	-1.98424	-0.47403	-0.49229	-0.29243	-2.19553	-0.48394	 1.94743	 1.46460	-0.66120	 0.16874	-2.86103	-1.18350	 0.97370	 0.84351	-3.56658	 0.05376	-0.07010	 1.41488	-2.54796	-2.85849	 1.64871	 0.50016	 3.04137	-0.81765	 1.07282	-0.35355	-1.46755	-1.47457	 0.00730	 0.00857	-2.18509	 0.90884	
 17582	-1.08153	 0.30086	-0.47695	 0.07173	-2.01533	-0.48223	-0.52140	-0.29824	-2.22055	-0.48634	 1.91930	 1.45020	-0.67313	 0.17322	-2.86334	-1.19330	 0.96552	 0.83637	-3.56658	 0.05376	-0.08662	 1.40133	-2.23584	-4.03239	 1.63892	 0.49949	 3.04375	-0.81312	 1.03060	-0.33770	-1.49503	-1.47769	 0.00801	 0.00755	-2.18522	 0.91107	
 17583	-1.18658	 0.34029	-0.47695	 0.07173	-2.03805	-0.49355	-0.55047	-0.30406	-2.24552	-0.48876	 1.88734	 1.44141	-0.68757	 0.16875	-2.87567	-1.18867	 0.94435	 0.82894	-3.21262	-0.45449	-0.11241	 1.40095	-2.23584	-4.03239	 1.61992	 0.50226	 3.04758	-0.80698	 1.01152	-0.35516	-1.51714	-1.48277	 0.00801	 0.00755	-2.18349	 0.91467	
 17584	-1.18658	 0.34029	-0.57047	 0.10481	-2.06450	-0.49948	-0.58697	-0.29919	-2.26702	-0.48657	 1.85931	 1.42705	-0.71138	 0.17768	-2.86568	-1.20308	 0.92321	 0.82149	-3.21262	-0.45449	-0.12649	 1.39631	-2.23584	-4.03239	 1.60555	 0.50330	 3.05284	-0.80043	 0.96942	-0.33936	-1.53376	-1.48723	 0.00730	 0.00857	-2.18131	 0.92170	
 17585	-1.29128	 0.37960	-0.66368	 0.13778	-2.08637	-0.50315	-0.60127	-0.31020	-2.27947	-0.48779	 1.83383	 1.42004	-0.72579	 0.17320	-2.87797	-1.19846	 0.90211	 0.81405	-3.42799	-0.37800	-0.14057	 1.39168	-2.23584	-4.03239	 1.59119	 0.50434	 3.05999	-0.79410	 0.95042	-0.35680	-1.54487	-1.49104	 0.00876	 0.00800	-2.17497	 0.93291	
 17586	-1.29128	 0.37960	-0.75429	 0.26677	-2.09543	-0.50766	-0.60842	-0.31571	-2.27605	-0.48318	 1.82374	 1.40728	-0.73767	 0.17766	-2.87567	-1.18867	 0.88031	 0.81694	-3.08322	-0.87306	-0.14057	 1.39168	-2.23584	-4.03239	 1.58605	 0.50192	 3.07121	-0.78806	 0.95042	-0.35680	-1.54521	-1.49616	 0.00810	 0.00895	-2.16560	 0.94791	
 17587	-1.29128	 0.37960	-0.66109	 0.23380	-2.08637	-0.50315	-0.60127	-0.31020	-2.25455	-0.48537	 1.81738	 1.40553	-0.73517	 0.18661	-2.87334	-1.17887	 0.88438	 0.82050	-3.08322	-0.87306	-0.13816	 1.40056	-2.23584	-4.03239	 1.59377	 0.50554	 3.08800	-0.78191	 0.95042	-0.35680	-1.53195	-1.50099	 0.00945	 0.00841	-2.15123	 0.96384	
 17588	-1.18658	 0.34029	-0.56756	 0.20073	-2.05050	-0.48888	-0.55799	-0.29335	-2.21709	-0.48175	 1.83274	 1.39977	-0.69948	 0.17322	-2.84636	-1.17833	 0.91842	 0.82828	-3.08322	-0.87306	-0.10072	 1.39669	-1.56431	-4.27090	 1.62764	 0.50589	 3.11087	-0.77584	 0.99247	-0.37259	-1.50467	-1.50044	 0.00945	 0.00841	-2.13043	 0.97868	
 17589	-1.18126	 0.44346	-0.47374	 0.16754	-1.97097	-0.47106	-0.47068	-0.27586	-2.16354	-0.47232	 1.86209	 1.40116	-0.65867	 0.17770	-2.80465	-1.17262	 0.96961	 0.83994	-2.86785	-0.94955	-0.04665	 1.40635	-2.54796	-2.85849	 1.68118	 0.50759	 3.13731	-0.76988	 1.01152	-0.35516	-1.46499	-1.49782	 0.00945	 0.00841	-2.10494	 0.98881	
 17590	-1.07583	 0.40388	-0.28519	 0.10085	-1.86890	-0.44956	-0.36099	-0.24993	-2.10073	-0.46632	 1.90302	 1.40235	-0.60328	 0.18666	-2.76284	-1.16691	 1.02918	 0.85876	-3.21262	-0.45449	 0.01935	 1.41172	-2.54796	-2.85849	 1.73281	 0.51222	 3.16413	-0.76500	 1.03060	-0.33770	-1.42077	-1.49027	 0.00945	 0.00841	-2.07537	 0.99522	
 17591	-0.86381	 0.32429	-0.28163	 0.19714	-1.76198	-0.42964	-0.25052	-0.22400	-2.04683	-0.45690	 1.94016	 1.40914	-0.54770	 0.19560	-2.71858	-1.15136	 1.08483	 0.87404	-3.21262	-0.45449	 0.09051	 1.43493	-1.86027	-3.10274	 1.78202	 0.51561	 3.18776	-0.76105	 1.04970	-0.32021	-1.38571	-1.47803	 0.00945	 0.00841	-2.04691	 0.99915	
 17592	-0.86381	 0.32429	-0.18657	 0.16352	-1.67217	-0.41110	-0.14654	-0.21184	-1.99626	-0.45213	 1.97222	 1.41786	-0.49195	 0.20455	-2.68899	-1.14100	 1.13654	 0.88573	-3.21262	-0.45449	 0.14766	 1.45355	-1.86027	-3.10274	 1.81420	 0.51886	 3.20655	-0.75818	 1.06882	-0.30268	-1.35488	-1.46815	 0.01011	 0.00746	-2.02289	 1.00123	
 17593	-0.65749	 0.14167	-0.09119	 0.12979	-1.60520	-0.40399	-0.07938	-0.20289	-1.96389	-0.44048	 1.99791	 1.42484	-0.46012	 0.22254	-2.65934	-1.13061	 1.17109	 0.89355	-3.21262	-0.45449	 0.20254	 1.46321	-2.92268	-1.57722	 1.82929	 0.52196	 3.22163	-0.75680	 1.11117	-0.31858	-1.33109	-1.46231	 0.00876	 0.00800	-2.00378	 1.00233	
 17594	-0.65749	 0.14167	-0.09119	 0.12979	-1.56908	-0.39737	-0.04205	-0.19152	-1.94415	-0.43002	 2.01721	 1.43008	-0.44547	 0.22703	-2.64213	-1.11552	 1.18355	 0.90432	-3.21262	-0.45449	 0.23379	 1.48153	-2.92268	-1.57722	 1.82985	 0.52613	 3.23326	-0.75605	 1.11117	-0.31858	-1.31698	-1.45688	 0.00876	 0.00800	-1.99030	 1.00137	
 17595	-0.65749	 0.14167	-0.18297	 0.26043	-1.55972	-0.39280	-0.02708	-0.18861	-1.93144	-0.42883	 2.03010	 1.43356	-0.43081	 0.23153	-2.62729	-1.11031	 1.19671	 0.90464	-3.21262	-0.45449	 0.24818	 1.48621	-2.92268	-1.57722	 1.82518	 0.52788	 3.24142	-0.75595	 1.15359	-0.33450	-1.30445	-1.45482	 0.00876	 0.00800	-1.98056	 0.99753	
 17596	-0.75722	 0.28427	-0.18297	 0.26043	-1.56014	-0.39667	-0.03462	-0.18594	-1.93144	-0.42883	 2.03654	 1.43531	-0.43081	 0.23153	-2.61241	-1.10511	 1.20088	 0.90822	-2.99559	-0.53157	 0.26009	 1.48187	-1.86027	-3.10274	 1.82257	 0.52667	 3.24615	-0.75649	 1.19606	-0.35045	-1.29872	-1.45163	 0.00664	 0.00952	-1.97139	 0.99249	
 17597	-0.85766	 0.42790	-0.18297	 0.26043	-1.56950	-0.40124	-0.04973	-0.18060	-1.93496	-0.43347	 2.03780	 1.43900	-0.43081	 0.23153	-2.58739	-1.11450	 1.20573	 0.90136	-2.99559	-0.53157	 0.26009	 1.48187	-1.86027	-3.10274	 1.81531	 0.52721	 3.24873	-0.75767	 1.17285	-0.31698	-1.29173	-1.45020	 0.00810	 0.00895	-1.96230	 0.98961	
 17598	-0.75069	 0.38774	-0.18297	 0.26043	-1.59204	-0.40490	-0.07223	-0.18085	-1.93850	-0.43810	 2.03654	 1.43531	-0.43081	 0.23153	-2.58739	-1.11450	 1.19671	 0.90464	-2.99559	-0.53157	 0.25760	 1.47286	-0.87662	-4.51515	 1.81065	 0.52896	 3.24844	-0.75851	 1.17285	-0.31698	-1.28742	-1.44780	 0.00810	 0.00895	-1.94882	 0.98864	
 17599	-0.75069	 0.38774	-0.18657	 0.16352	-1.62303	-0.40537	-0.10209	-0.18667	-1.95684	-0.43122	 2.02493	 1.43551	-0.42133	 0.21797	-2.58979	-1.12439	 1.19257	 0.90104	-2.99559	-0.53157	 0.23130	 1.47253	-1.56431	-4.27090	 1.80544	 0.52653	 3.24772	-0.75871	 1.17285	-0.31698	-1.28187	-1.44716	 0.00810	 0.00895	-1.93113	 0.99178	
 17600	-0.85766	 0.42790	-0.18657	 0.16352	-1.64973	-0.40744	-0.13192	-0.19249	-1.96035	-0.43586	 2.01331	 1.43570	-0.43340	 0.22250	-2.60230	-1.11969	 1.18425	 0.89385	-2.65081	-1.02664	 0.21690	 1.46788	-1.56431	-4.27090	 1.79817	 0.52707	 3.24879	-0.75840	 1.17285	-0.31698	-1.27774	-1.44735	 0.00810	 0.00895	-1.91508	 1.00134	
 17601	-0.85766	 0.42790	-0.19045	 0.06734	-1.67217	-0.41110	-0.14654	-0.21184	-1.96601	-0.42777	 2.00687	 1.43396	-0.44547	 0.22703	-2.60467	-1.12959	 1.17109	 0.89355	-2.65081	-1.02664	 0.20254	 1.46321	-1.56431	-4.27090	 1.79091	 0.52760	 3.25253	-0.75691	 1.19606	-0.35045	-1.27633	-1.44654	 0.00810	 0.00895	-1.89905	 1.01307	
 17602	-0.75722	 0.28427	-0.19045	 0.06734	-1.68991	-0.41249	-0.16129	-0.22296	-1.96601	-0.42777	 2.00562	 1.43027	-0.45753	 0.23156	-2.59218	-1.13427	 1.16280	 0.88636	-2.65081	-1.02664	 0.20006	 1.45422	-2.23584	-4.03239	 1.79036	 0.52343	 3.25877	-0.75468	 1.19606	-0.35045	-1.27613	-1.44397	 0.00810	 0.00895	-1.88636	 1.02543	
 17603	-0.86381	 0.32429	-0.19045	 0.06734	-1.69878	-0.41319	-0.17614	-0.22586	-1.96601	-0.42777	 2.01594	 1.42639	-0.46012	 0.22254	-2.57968	-1.13897	 1.15451	 0.87919	-2.99559	-0.53157	 0.20006	 1.45422	-2.23584	-4.03239	 1.78572	 0.52517	 3.26612	-0.75213	 1.19606	-0.35045	-1.27202	-1.44414	 0.00664	 0.00952	-1.87789	 1.03368	
 17604	-0.86381	 0.32429	-0.19045	 0.06734	-1.70343	-0.41547	-0.17588	-0.24226	-1.96953	-0.43242	 2.02756	 1.42619	-0.47474	 0.21804	-2.55223	-1.13849	 1.14621	 0.87203	-2.99559	-0.53157	 0.21193	 1.44990	-2.23584	-4.03239	 1.78572	 0.52517	 3.27156	-0.74937	 1.15359	-0.33450	-1.26644	-1.44352	 0.00664	 0.00952	-1.87616	 1.03729	
 17605	-0.76408	 0.18168	-0.19045	 0.06734	-1.70806	-0.41775	-0.19085	-0.23696	-1.98572	-0.43824	 2.03918	 1.42599	-0.48935	 0.21355	-2.54742	-1.11870	 1.14690	 0.86160	-2.99559	-0.53157	 0.20254	 1.46321	-2.23584	-4.03239	 1.78105	 0.52692	 3.27413	-0.74746	 1.15359	-0.33450	-1.26230	-1.44370	 0.00664	 0.00952	-1.88063	 1.03762	
 17606	-0.87028	 0.22155	-0.19045	 0.06734	-1.72115	-0.41686	-0.20569	-0.23986	-1.99839	-0.43944	 2.04562	 1.42774	-0.50396	 0.20906	-2.53249	-1.11350	 1.14275	 0.85803	-3.34955	-0.02332	 0.22381	 1.44558	-2.54796	-2.85849	 1.77846	 0.52571	 3.27404	-0.74671	 1.13434	-0.35198	-1.25818	-1.44387	 0.00664	 0.00952	-1.88555	 1.03453	
 17607	-0.87028	 0.22155	-0.19045	 0.06734	-1.73886	-0.41824	-0.22811	-0.23192	-2.00540	-0.44870	 2.04171	 1.43337	-0.50654	 0.20007	-2.52768	-1.09366	 1.13377	 0.86130	-3.34955	-0.02332	 0.21193	 1.44990	-3.21949	-2.61998	 1.76656	 0.52798	 3.27127	-0.74712	 1.13434	-0.35198	-1.25531	-1.44227	 0.00664	 0.00952	-1.89248	 1.03218	
 17608	-0.97610	 0.26128	-0.28519	 0.10085	-1.76116	-0.42192	-0.25785	-0.22955	-2.01243	-0.45794	 2.03263	 1.44094	-0.50911	 0.19107	-2.52768	-1.09366	 1.12067	 0.86099	-3.49454	 0.42120	 0.20945	 1.44093	-2.54796	-2.85849	 1.74742	 0.53079	 3.26624	-0.74862	 1.09199	-0.33609	-1.24976	-1.44164	 0.00664	 0.00952	-1.89940	 1.02982	
 17609	-0.87710	 0.11971	-0.37962	 0.13425	-1.79227	-0.42629	-0.29483	-0.23274	-2.03420	-0.45571	 2.02746	 1.44289	-0.52370	 0.18659	-2.52768	-1.09366	 1.11171	 0.86425	-3.13088	-0.10099	 0.19508	 1.43629	-1.56431	-4.27090	 1.73705	 0.52593	 3.25948	-0.75138	 1.09199	-0.33609	-1.24812	-1.43826	 0.00730	 0.00857	-1.91004	 1.02681	
 17610	-1.08153	 0.30086	-0.28900	 0.00526	-1.82793	-0.43294	-0.32414	-0.24674	-2.05945	-0.45811	 2.01585	 1.44308	-0.54085	 0.17315	-2.54023	-1.08895	 1.09448	 0.86036	-3.34955	-0.02332	 0.16888	 1.43596	-0.87662	-4.51515	 1.72203	 0.52282	 3.25095	-0.75468	 1.09199	-0.33609	-1.25335	-1.43370	 0.00730	 0.00857	-1.91935	 1.02180	
 17611	-1.08153	 0.30086	-0.38313	 0.03855	-1.86810	-0.44186	-0.36083	-0.25809	-2.08815	-0.46511	 1.99906	 1.44522	-0.56738	 0.17318	-2.55278	-1.08424	 1.08622	 0.85321	-2.99559	-0.53157	 0.14271	 1.43563	-1.86027	-3.10274	 1.70703	 0.51971	 3.24169	-0.75817	 1.09199	-0.33609	-1.25999	-1.42996	 0.00730	 0.00857	-1.92477	 1.01526	
 17612	-1.18658	 0.34029	-0.47695	 0.07173	-1.90817	-0.45079	-0.39742	-0.26944	-2.12241	-0.46410	 1.99011	 1.43609	-0.59386	 0.17319	-2.55517	-1.09417	 1.06009	 0.85258	-3.21262	-0.45449	 0.11659	 1.43529	-1.86027	-3.10274	 1.69000	 0.51956	 3.23213	-0.76063	 1.04970	-0.32021	-1.27077	-1.42603	 0.00730	 0.00857	-1.93164	 1.01294	
 17613	-1.18658	 0.34029	-0.47695	 0.07173	-1.94814	-0.45972	-0.43393	-0.28079	-2.15100	-0.47112	 1.97601	 1.42891	-0.61777	 0.18217	-2.56770	-1.08946	 1.03399	 0.85194	-3.08322	-0.87306	 0.07871	 1.43923	-1.86027	-3.10274	 1.67095	 0.52235	 3.22271	-0.76264	 1.04970	-0.32021	-1.27904	-1.42568	 0.00730	 0.00857	-1.93856	 1.01058	
 17614	-1.18658	 0.34029	-0.57047	 0.10481	-1.98801	-0.46864	-0.47772	-0.28952	-2.18515	-0.47012	 1.96065	 1.41805	-0.64421	 0.18218	-2.58261	-1.09468	 1.01273	 0.84448	-2.74717	-1.35558	 0.05022	 1.42994	-1.86027	-3.10274	 1.65652	 0.52339	 3.21341	-0.76424	 1.04970	-0.32021	-1.28746	-1.42791	 0.00664	 0.00952	-1.95252	 1.01031	
 17615	-1.29128	 0.37960	-0.66109	 0.23380	-2.02740	-0.47373	-0.51405	-0.30084	-2.21018	-0.47254	 1.94142	 1.41281	-0.66808	 0.19114	-2.59751	-1.09990	 0.98190	 0.85065	-2.74717	-1.35558	 0.01003	 1.42492	-2.54796	-2.85849	 1.64416	 0.52149	 3.20415	-0.76583	 1.04970	-0.32021	-1.29874	-1.43176	 0.00664	 0.00952	-1.96898	 1.00742	
 17616	-1.29128	 0.37960	-0.57047	 0.10481	-2.06709	-0.48265	-0.55047	-0.30406	-2.24422	-0.47156	 1.92346	 1.41126	-0.69193	 0.20009	-2.61241	-1.10511	 0.96480	 0.84675	-3.08322	-0.87306	-0.01834	 1.41563	-2.54796	-2.85849	 1.63181	 0.51958	 3.19580	-0.76752	 1.03060	-0.33770	-1.31146	-1.43639	 0.00664	 0.00952	-1.98596	 1.00326	
 17617	-1.39558	 0.41875	-0.57047	 0.10481	-2.10632	-0.48774	-0.57946	-0.30989	-2.26357	-0.48198	 1.90039	 1.41163	-0.70635	 0.19559	-2.61478	-1.11500	 0.95182	 0.84642	-3.08322	-0.87306	-0.05837	 1.41062	-1.86027	-3.10274	 1.61024	 0.52114	 3.18833	-0.76860	 1.03060	-0.33770	-1.32416	-1.44104	 0.00730	 0.00857	-1.99988	 1.00080	
 17618	-1.29658	 0.27719	-0.66368	 0.13778	-2.13679	-0.49214	-0.60878	-0.29952	-2.27947	-0.48779	 1.88249	 1.41006	-0.70886	 0.18663	-2.62966	-1.12020	 0.93404	 0.85289	-3.21262	-0.45449	-0.07492	 1.39707	-1.86027	-3.10274	 1.59587	 0.52218	 3.18456	-0.76818	 1.05369	-0.37099	-1.33685	-1.44567	 0.00730	 0.00857	-2.00365	 1.00011	
 17619	-1.30222	 0.17564	-0.66368	 0.13778	-2.14994	-0.49510	-0.60878	-0.29952	-2.29193	-0.48900	 1.87485	 1.40465	-0.70886	 0.18663	-2.62966	-1.12020	 0.93332	 0.86327	-3.21262	-0.45449	-0.10072	 1.39669	-1.86027	-3.10274	 1.60049	 0.52044	 3.18855	-0.76583	 1.05369	-0.37099	-1.34275	-1.45145	 0.00730	 0.00857	-1.99235	 1.00217	
 17620	-1.30222	 0.17564	-0.57364	 0.00960	-2.13641	-0.48832	-0.57983	-0.29367	-2.27947	-0.48779	 1.87999	 1.40272	-0.68503	 0.17768	-2.62729	-1.11031	 0.95447	 0.87076	-3.21262	-0.45449	-0.08903	 1.39244	-1.86027	-3.10274	 1.62515	 0.52426	 3.20301	-0.76116	 1.05369	-0.37099	-1.34148	-1.45324	 0.00730	 0.00857	-1.96964	 1.00837	
 17621	-1.30222	 0.17564	-0.57364	 0.00960	-2.07954	-0.47798	-0.52192	-0.27388	-2.23648	-0.49215	 1.90691	 1.39675	-0.64674	 0.17321	-2.61241	-1.10511	 0.99277	 0.88216	-2.99559	-0.53157	-0.06080	 1.40172	-2.92268	-1.57722	 1.67406	 0.52773	 3.22795	-0.75530	 1.07282	-0.35355	-1.32519	-1.45653	 0.00801	 0.00755	-1.93883	 1.01503	
 17622	-1.29658	 0.27719	-0.48044	-0.02336	-1.98268	-0.45869	-0.42720	-0.25082	-2.17394	-0.48614	 1.94279	 1.39986	-0.60582	 0.17768	-2.58261	-1.09468	 1.04421	 0.89391	-2.99559	-0.53157	-0.00659	 1.41135	-2.92268	-1.57722	 1.73552	 0.53307	 3.25842	-0.74862	 1.09199	-0.33609	-1.30175	-1.45581	 0.00801	 0.00755	-1.90392	 1.02007	
 17623	-1.18658	 0.34029	-0.38313	 0.03855	-1.86730	-0.43417	-0.31716	-0.22484	-2.10209	-0.48356	 1.98126	 1.41031	-0.56225	 0.19113	-2.54023	-1.08895	 1.10064	 0.89880	-2.99559	-0.53157	 0.07379	 1.42136	-2.92268	-1.57722	 1.79461	 0.53717	 3.28903	-0.74266	 1.15359	-0.33450	-1.27542	-1.45348	 0.00801	 0.00755	-1.87289	 1.02447	
 17624	-1.18126	 0.44346	-0.37962	 0.13425	-1.75152	-0.41349	-0.19889	-0.20149	-2.03908	-0.47761	 2.01984	 1.42077	-0.52112	 0.19558	-2.49773	-1.08324	 1.16211	 0.89682	-2.86785	-0.94955	 0.15456	 1.43132	-1.86027	-3.10274	 1.83727	 0.54529	 3.31617	-0.73851	 1.17285	-0.31698	-1.25170	-1.45020	 0.00801	 0.00755	-1.84561	 1.02818	
 17625	-0.97001	 0.36416	-0.28163	 0.19714	-1.65738	-0.39651	-0.10961	-0.18401	-1.97936	-0.47630	 2.04815	 1.43512	-0.47045	 0.18652	-2.45754	-1.08747	 1.20573	 0.90136	-2.86785	-0.94955	 0.23569	 1.44125	-0.87662	-4.51515	 1.86229	 0.54908	 3.33664	-0.73597	 1.17285	-0.31698	-1.23356	-1.44754	 0.00801	 0.00755	-1.82211	 1.03120	
 17626	-0.97001	 0.36416	-0.27834	 0.29416	-1.58994	-0.38549	-0.04229	-0.17502	-1.94695	-0.46469	 2.07525	 1.44580	-0.45323	 0.19999	-2.42747	-1.07704	 1.24598	 0.89180	-2.86785	-0.94955	 0.29084	 1.45086	-1.56431	-4.27090	 1.87013	 0.55273	 3.35084	-0.73447	 1.21538	-0.33295	-1.22350	-1.44193	 0.00730	 0.00857	-1.79989	 1.03404	
 17627	-0.86381	 0.32429	-0.18297	 0.26043	-1.55376	-0.37885	 0.00282	-0.17455	-1.92155	-0.46233	 2.09072	 1.45669	-0.43858	 0.20447	-2.39979	-1.07656	 1.26336	 0.89570	-2.86785	-0.94955	 0.32225	 1.46916	-0.64857	-5.58581	 1.87481	 0.55097	 3.36051	-0.73394	 1.21538	-0.33295	-1.21091	-1.43987	 0.00730	 0.00857	-1.78028	 1.03860	
 17628	-0.86381	 0.32429	-0.18297	 0.26043	-1.54397	-0.37037	 0.01785	-0.17165	-1.90529	-0.45653	 2.10365	 1.46019	-0.42393	 0.20895	-2.37204	-1.07609	 1.27658	 0.89600	-2.65081	-1.02664	 0.33925	 1.48284	-0.64857	-5.58581	 1.87013	 0.55273	 3.36637	-0.73418	 1.25798	-0.34894	-1.20242	-1.43766	 0.00730	 0.00857	-1.76072	 1.04322	
 17629	-0.86381	 0.32429	-0.18297	 0.26043	-1.53972	-0.37197	 0.02553	-0.18258	-1.89822	-0.44726	 2.10886	 1.45824	-0.39717	 0.20890	-2.37204	-1.07609	 1.28494	 0.90319	-2.99559	-0.53157	 0.35374	 1.48750	-0.64857	-5.58581	 1.86751	 0.55151	 3.36947	-0.73483	 1.25798	-0.34894	-1.19271	-1.43720	 0.00730	 0.00857	-1.73978	 1.04800	
 17630	-0.86381	 0.32429	-0.18297	 0.26043	-1.54482	-0.37815	 0.01806	-0.18816	-1.89114	-0.43799	 2.11669	 1.44694	-0.38246	 0.21338	-2.36183	-1.09081	 1.29818	 0.90349	-2.99559	-0.53157	 0.35374	 1.48750	-1.56431	-4.27090	 1.86283	 0.55327	 3.37050	-0.73568	 1.23474	-0.31543	-1.18838	-1.43479	 0.00730	 0.00857	-1.72075	 1.05135	
 17631	-0.86381	 0.32429	-0.18297	 0.26043	-1.54993	-0.38433	 0.00304	-0.19105	-1.89326	-0.42526	 2.11540	 1.44325	-0.36776	 0.21786	-2.37694	-1.09601	 1.29331	 0.91039	-2.99559	-0.53157	 0.34429	 1.50089	-0.87662	-4.51515	 1.86489	 0.55030	 3.37037	-0.73610	 1.19214	-0.29944	-1.19089	-1.43124	 0.00664	 0.00952	-1.70677	 1.05384	
 17632	-0.96425	 0.46791	-0.18297	 0.26043	-1.56781	-0.38571	-0.01197	-0.19395	-1.88972	-0.42062	 2.11284	 1.43586	-0.37725	 0.23144	-2.37940	-1.10595	 1.28913	 0.90679	-2.99559	-0.53157	 0.34429	 1.50089	-1.86027	-3.10274	 1.85761	 0.55083	 3.37037	-0.73610	 1.14961	-0.28347	-1.19504	-1.43106	 0.00739	 0.00996	-1.70243	 1.05573	
 17633	-0.96425	 0.46791	-0.27834	 0.29416	-1.58568	-0.38709	-0.03440	-0.20242	-1.88972	-0.42062	 2.10638	 1.43411	-0.38676	 0.24503	-2.38185	-1.11589	 1.28075	 0.89960	-2.99559	-0.53157	 0.34178	 1.49185	-1.15557	-3.35303	 1.85238	 0.54840	 3.37014	-0.73579	 1.14961	-0.28347	-1.19935	-1.43346	 0.00739	 0.00996	-1.70425	 1.05427	
 17634	-0.86381	 0.32429	-0.27834	 0.29416	-1.60778	-0.38687	-0.05678	-0.21088	-1.89539	-0.41252	 2.10119	 1.43606	-0.39886	 0.24958	-2.38431	-1.12582	 1.27239	 0.89242	-2.43214	-1.10430	 0.32982	 1.49621	-1.15557	-3.35303	 1.84249	 0.54772	 3.36895	-0.73535	 1.17285	-0.31698	-1.20512	-1.43667	 0.00739	 0.00996	-1.71051	 1.05097	
 17635	-0.86381	 0.32429	-0.28163	 0.19714	-1.62136	-0.38985	-0.07927	-0.21111	-1.89539	-0.41252	 2.10638	 1.43411	-0.39886	 0.24958	-2.39692	-1.12108	 1.26822	 0.88882	-2.43214	-1.10430	 0.32729	 1.48719	-1.86027	-3.10274	 1.83520	 0.54826	 3.36750	-0.73577	 1.17285	-0.31698	-1.21215	-1.43810	 0.00810	 0.00895	-1.71593	 1.04442	
 17636	-0.86381	 0.32429	-0.19045	 0.06734	-1.63450	-0.38895	-0.08667	-0.21667	-1.89185	-0.40786	 2.10247	 1.43975	-0.39886	 0.24958	-2.40955	-1.11634	 1.27307	 0.88194	-2.43214	-1.10430	 0.32478	 1.47817	-1.86027	-3.10274	 1.83727	 0.54529	 3.36542	-0.73717	 1.17285	-0.31698	-1.21917	-1.43952	 0.00876	 0.00800	-1.71616	 1.03653	
 17637	-0.87028	 0.22155	-0.28519	 0.10085	-1.63534	-0.39671	-0.10172	-0.21135	-1.89185	-0.40786	 2.10247	 1.43975	-0.38676	 0.24503	-2.41200	-1.12626	 1.26404	 0.88523	-2.21177	-1.18257	 0.31032	 1.47351	-1.86027	-3.10274	 1.83727	 0.54529	 3.36343	-0.73929	 1.17285	-0.31698	-1.22476	-1.44014	 0.00876	 0.00800	-1.71271	 1.03157	
 17638	-0.97001	 0.36416	-0.19045	 0.06734	-1.64424	-0.39740	-0.11676	-0.20603	-1.89185	-0.40786	 2.10119	 1.43606	-0.38416	 0.25408	-2.42460	-1.12153	 1.26404	 0.88523	-2.21177	-1.18257	 0.29837	 1.47786	-1.86027	-3.10274	 1.83727	 0.54529	 3.36145	-0.74143	 1.23859	-0.36641	-1.22887	-1.43997	 0.00876	 0.00800	-1.70423	 1.02967	
 17639	-0.97001	 0.36416	-0.19045	 0.06734	-1.65355	-0.40198	-0.13166	-0.20893	-1.88618	-0.41597	 2.09081	 1.43996	-0.37205	 0.24954	-2.43965	-1.12671	 1.25501	 0.88852	-2.21177	-1.18257	 0.29587	 1.46885	-1.86027	-3.10274	 1.83260	 0.54704	 3.35984	-0.74227	 1.19606	-0.35045	-1.23574	-1.43878	 0.01011	 0.00746	-1.69478	 1.03246	
 17640	-0.97001	 0.36416	-0.09539	 0.03372	-1.67556	-0.40177	-0.15405	-0.20919	-1.88972	-0.42062	 2.07916	 1.44016	-0.37205	 0.24954	-2.44210	-1.13662	 1.24181	 0.88822	-2.43214	-1.10430	 0.29336	 1.45984	-0.87662	-4.51515	 1.82066	 0.54933	 3.35810	-0.74164	 1.21923	-0.38385	-1.23986	-1.43861	 0.00945	 0.00841	-1.68608	 1.03845	
 17641	-0.97001	 0.36416	-0.18657	 0.16352	-1.70179	-0.39998	-0.17614	-0.22586	-1.90813	-0.41371	 2.07269	 1.43842	-0.38676	 0.24503	-2.44454	-1.14652	 1.22444	 0.88433	-2.77691	-0.60924	 0.27892	 1.45520	-1.56431	-4.27090	 1.80612	 0.55040	 3.35658	-0.74014	 1.17675	-0.36791	-1.24812	-1.43826	 0.00945	 0.00841	-1.68124	 1.04379	
 17642	-1.07583	 0.40388	-0.19045	 0.06734	-1.73300	-0.40436	-0.21318	-0.23721	-1.91519	-0.42300	 2.06624	 1.43667	-0.41095	 0.25412	-2.45712	-1.14179	 1.20294	 0.87685	-2.77691	-0.60924	 0.26449	 1.45055	-0.64857	-5.58581	 1.78900	 0.55024	 3.35452	-0.73844	 1.15746	-0.38532	-1.25513	-1.43968	 0.00945	 0.00841	-1.68079	 1.04721	
 17643	-1.18126	 0.44346	-0.19045	 0.06734	-1.76878	-0.41102	-0.24997	-0.25673	-1.94627	-0.41730	 2.05979	 1.43492	-0.42822	 0.24056	-2.45955	-1.15169	 1.18632	 0.86252	-3.34955	-0.02332	 0.25010	 1.44590	-0.64857	-5.58581	 1.76462	 0.55062	 3.35005	-0.73704	 1.11511	-0.36942	-1.26230	-1.44370	 0.00945	 0.00841	-1.69121	 1.04988	
 17644	-1.18658	 0.34029	-0.19458	-0.02814	-1.80069	-0.42313	-0.28666	-0.27622	-1.96249	-0.42314	 2.04943	 1.43881	-0.44547	 0.22703	-2.47213	-1.14697	 1.16071	 0.85150	-3.34955	-0.02332	 0.22381	 1.44558	-0.64857	-5.58581	 1.74494	 0.54924	 3.34245	-0.73618	 1.09591	-0.38684	-1.27075	-1.44592	 0.00810	 0.00895	-1.70661	 1.04943	
 17645	-1.08758	 0.19873	-0.28900	 0.00526	-1.84052	-0.42821	-0.33827	-0.28227	-1.98785	-0.42554	 2.04298	 1.43706	-0.48421	 0.23158	-2.46200	-1.16157	 1.13032	 0.84731	-3.21262	-0.45449	 0.19757	 1.44525	-1.56431	-4.27090	 1.72526	 0.54787	 3.33313	-0.73660	 1.05369	-0.37099	-1.28060	-1.44895	 0.00810	 0.00895	-1.72577	 1.04830	
 17646	-1.19227	 0.23803	-0.38313	 0.03855	-1.88068	-0.43714	-0.38229	-0.29097	-2.00754	-0.43600	 2.02619	 1.43920	-0.50140	 0.21807	-2.47455	-1.15686	 1.10895	 0.83986	-3.21262	-0.45449	 0.17136	 1.44492	-1.56431	-4.27090	 1.70768	 0.54352	 3.32203	-0.73756	 1.05369	-0.37099	-1.29049	-1.45197	 0.00730	 0.00857	-1.74098	 1.04556	
 17647	-1.09397	 0.09746	-0.38691	-0.05644	-1.92032	-0.44224	-0.42638	-0.29153	-2.03284	-0.43840	 2.01331	 1.43570	-0.54002	 0.22260	-2.47701	-1.16673	 1.09654	 0.82917	-3.21262	-0.45449	 0.15456	 1.43132	-1.56431	-4.27090	 1.69063	 0.54336	 3.30997	-0.73840	 1.01152	-0.35516	-1.29888	-1.45421	 0.00730	 0.00857	-1.75251	 1.04576	
 17648	-1.09397	 0.09746	-0.48044	-0.02336	-1.95570	-0.44891	-0.46297	-0.29473	-2.05460	-0.43617	 1.99918	 1.42852	-0.56403	 0.23161	-2.47945	-1.17660	 1.07041	 0.82855	-2.99559	-0.53157	 0.12843	 1.43098	-0.87662	-4.51515	 1.67104	 0.54197	 3.29851	-0.73945	 1.03456	-0.38839	-1.30713	-1.45385	 0.00730	 0.00857	-1.76160	 1.04865	
 17649	-1.19227	 0.23803	-0.48044	-0.02336	-1.99857	-0.44477	-0.50685	-0.29533	-2.06158	-0.44543	 1.98116	 1.42697	-0.58803	 0.24062	-2.50453	-1.16718	 1.04843	 0.83149	-2.99559	-0.53157	 0.10233	 1.43063	-1.86027	-3.10274	 1.65403	 0.54179	 3.28687	-0.74021	 0.99247	-0.37259	-1.31126	-1.45366	 0.00730	 0.00857	-1.77016	 1.05271	
 17650	-1.19828	 0.13662	-0.48044	-0.02336	-2.02924	-0.44918	-0.54329	-0.29855	-2.07983	-0.43858	 1.96832	 1.42348	-0.60255	 0.23611	-2.50696	-1.17705	 1.02646	 0.83442	-2.77691	-0.60924	 0.07625	 1.43029	-1.86027	-3.10274	 1.63499	 0.54457	 3.27553	-0.74083	 1.01548	-0.40577	-1.31270	-1.45446	 0.00730	 0.00857	-1.78000	 1.05658	
 17651	-1.19828	 0.13662	-0.48044	-0.02336	-2.06327	-0.44436	-0.57231	-0.30438	-2.09805	-0.43174	 1.95676	 1.42366	-0.61453	 0.24061	-2.53202	-1.16764	 1.00453	 0.83734	-2.77691	-0.60924	 0.07133	 1.41242	-1.86027	-3.10274	 1.62984	 0.54214	 3.26533	-0.74115	 1.01548	-0.40577	-1.31537	-1.45349	 0.00730	 0.00857	-1.79103	 1.06023	
 17652	-1.19828	 0.13662	-0.48044	-0.02336	-2.08025	-0.44196	-0.58679	-0.30729	-2.08894	-0.43516	 1.95800	 1.42735	-0.61705	 0.23159	-2.53202	-1.16764	 0.99561	 0.84059	-2.77691	-0.60924	 0.05710	 1.40778	-1.56431	-4.27090	 1.63242	 0.54336	 3.25984	-0.74201	 1.01548	-0.40577	-1.30858	-1.45463	 0.00730	 0.00857	-1.79751	 1.06130	
 17653	-1.19828	 0.13662	-0.57047	 0.10481	-2.07572	-0.43969	-0.57231	-0.30438	-2.08197	-0.42590	 1.96178	 1.43841	-0.60508	 0.22710	-2.52960	-1.15777	 1.02165	 0.84124	-2.77691	-0.60924	 0.06641	 1.39458	-1.56431	-4.27090	 1.65715	 0.54718	 3.26148	-0.74309	 1.01548	-0.40577	-1.29747	-1.45339	 0.00876	 0.00800	-1.78837	 1.05845	
 17654	-1.19828	 0.13662	-0.47695	 0.07173	-2.03641	-0.43454	-0.52893	-0.28752	-2.05324	-0.41884	 1.98621	 1.44172	-0.57858	 0.22711	-2.50211	-1.15730	 1.06902	 0.84933	-2.43214	-1.10430	 0.09245	 1.39491	-0.87662	-4.51515	 1.69689	 0.55414	 3.26964	-0.74296	 1.03456	-0.38839	-1.27649	-1.44912	 0.00876	 0.00800	-1.76447	 1.05481	
 17655	-1.19227	 0.23803	-0.47374	 0.16754	-1.95414	-0.43353	-0.44131	-0.27818	-2.00616	-0.41866	 2.01711	 1.44677	-0.53746	 0.23161	-2.48468	-1.14226	 1.12895	 0.86814	-2.43214	-1.10430	 0.13281	 1.39987	-0.87662	-4.51515	 1.75380	 0.56126	 3.28407	-0.74180	 1.09591	-0.38684	-1.25243	-1.44067	 0.00876	 0.00800	-1.72594	 1.05270	
 17656	-1.08758	 0.19873	-0.37962	 0.13425	-1.85731	-0.42191	-0.33871	-0.25781	-1.95546	-0.41385	 2.05197	 1.44620	-0.48421	 0.23158	-2.45468	-1.13189	 1.20294	 0.87685	-2.21177	-1.18257	 0.17825	 1.42270	-0.87662	-4.51515	 1.80885	 0.57134	 3.30253	-0.74020	 1.09199	-0.33609	-1.22294	-1.43417	 0.00876	 0.00800	-1.68180	 1.05485	
 17657	-1.08153	 0.30086	-0.37637	 0.23065	-1.75152	-0.41349	-0.23545	-0.23747	-1.91379	-0.40561	 2.08299	 1.45124	-0.44030	 0.24510	-2.41445	-1.13617	 1.25919	 0.89211	-2.21177	-1.18257	 0.22381	 1.44558	-0.87662	-4.51515	 1.85625	 0.57774	 3.32168	-0.73766	 1.17675	-0.36791	-1.20045	-1.42909	 0.00876	 0.00800	-1.63979	 1.06006	
 17658	-0.97610	 0.26128	-0.28163	 0.19714	-1.66668	-0.40108	-0.15393	-0.21740	-1.87557	-0.40201	 2.10757	 1.45455	-0.41095	 0.25412	-2.38431	-1.12582	 1.29885	 0.89301	-2.21177	-1.18257	 0.29084	 1.45086	-0.87662	-4.51515	 1.88859	 0.58102	 3.33929	-0.73479	 1.19606	-0.35045	-1.18368	-1.42722	 0.00876	 0.00800	-1.60558	 1.06834	
 17659	-0.87028	 0.22155	-0.18657	 0.16352	-1.60395	-0.39235	-0.10184	-0.20312	-1.85926	-0.39617	 2.13093	 1.45414	-0.38416	 0.25408	-2.35658	-1.12538	 1.32115	 0.89001	-2.21177	-1.18257	 0.34364	 1.45146	-0.87662	-4.51515	 1.90583	 0.58116	 3.35298	-0.73191	 1.19606	-0.35045	-1.17827	-1.42919	 0.00946	 0.00698	-1.58086	 1.07601	
 17660	-0.97001	 0.36416	-0.18657	 0.16352	-1.57206	-0.38411	-0.07963	-0.18642	-1.83726	-0.39843	 2.13998	 1.46329	-0.38156	 0.26314	-2.34145	-1.12020	 1.32115	 0.89001	-2.43214	-1.10430	 0.37262	 1.46076	-0.87662	-4.51515	 1.91521	 0.57764	 3.36320	-0.72968	 1.23859	-0.36641	-1.17719	-1.43357	 0.00876	 0.00800	-1.56449	 1.08115	
 17661	-0.86381	 0.32429	-0.09119	 0.12979	-1.56655	-0.37405	-0.06457	-0.19174	-1.83370	-0.39378	 2.14646	 1.46505	-0.38156	 0.26314	-2.31365	-1.11977	 1.31276	 0.88283	-2.55654	-0.68751	 0.39911	 1.46104	-0.87662	-4.51515	 1.91466	 0.57344	 3.36876	-0.72766	 1.23859	-0.36641	-1.18586	-1.43837	 0.00876	 0.00800	-1.55885	 1.08332	
 17662	-0.86381	 0.32429	-0.09119	 0.12979	-1.56655	-0.37405	-0.07209	-0.18908	-1.83726	-0.39843	 2.15294	 1.46679	-0.38156	 0.26314	-2.30869	-1.09987	 1.30438	 0.87565	-2.55654	-0.68751	 0.40855	 1.44767	-1.56431	-4.27090	 1.90735	 0.57398	 3.37071	-0.72669	 1.19606	-0.35045	-1.19863	-1.44302	 0.00876	 0.00800	-1.56120	 1.08059	
 17663	-0.86381	 0.32429	-0.09119	 0.12979	-1.58357	-0.36766	-0.07186	-0.20555	-1.84080	-0.40310	 2.15294	 1.46679	-0.39367	 0.26769	-2.29353	-1.09467	 1.28695	 0.87179	-2.55654	-0.68751	 0.40855	 1.44767	-0.64857	-5.58581	 1.89741	 0.57330	 3.36963	-0.72702	 1.19606	-0.35045	-1.21558	-1.44745	 0.00876	 0.00800	-1.57061	 1.07562	
 17664	-0.86381	 0.32429	-0.18297	 0.26043	-1.60144	-0.36904	-0.09419	-0.21401	-1.85359	-0.40428	 2.15687	 1.46114	-0.39627	 0.25863	-2.27836	-1.08948	 1.28344	 0.85774	-2.21177	-1.18257	 0.40600	 1.43867	-1.32010	-5.34730	 1.88749	 0.57262	 3.36506	-0.72797	 1.17675	-0.36791	-1.23520	-1.45091	 0.00730	 0.00857	-1.58025	 1.06487	
 17665	-0.97001	 0.36416	-0.18297	 0.26043	-1.61927	-0.37044	-0.10899	-0.22513	-1.86068	-0.41359	 2.15559	 1.45743	-0.41095	 0.25412	-2.27836	-1.08948	 1.26605	 0.85388	-2.43214	-1.10430	 0.39147	 1.43405	-1.32010	-5.34730	 1.87550	 0.57491	 3.35911	-0.73009	 1.15746	-0.38532	-1.25349	-1.45618	 0.00730	 0.00857	-1.59047	 1.05080	
 17666	-0.97001	 0.36416	-0.18297	 0.26043	-1.63327	-0.37730	-0.12377	-0.23623	-1.87698	-0.41943	 2.15559	 1.45743	-0.41614	 0.23603	-2.27836	-1.08948	 1.26670	 0.84344	-2.43214	-1.10430	 0.37951	 1.43840	-2.23584	-4.03239	 1.86559	 0.57423	 3.35235	-0.73288	 1.15746	-0.38532	-1.26627	-1.46078	 0.00730	 0.00857	-1.60012	 1.03794	
 17667	-0.87028	 0.22155	-0.18297	 0.26043	-1.64724	-0.38417	-0.13867	-0.23912	-1.89326	-0.42526	 2.15559	 1.45743	-0.41873	 0.22700	-2.27836	-1.08948	 1.26252	 0.83987	-2.43214	-1.10430	 0.37697	 1.42941	-2.23584	-4.03239	 1.86091	 0.57599	 3.34483	-0.73586	 1.15746	-0.38532	-1.27612	-1.46381	 0.00730	 0.00857	-1.60275	 1.02739	
 17668	-0.87028	 0.22155	-0.18297	 0.26043	-1.65272	-0.39422	-0.14616	-0.23647	-1.90599	-0.42645	 2.15559	 1.45743	-0.43081	 0.23153	-2.27836	-1.08948	 1.27154	 0.83659	-2.43214	-1.10430	 0.36500	 1.43376	-3.21949	-2.61998	 1.85884	 0.57897	 3.33902	-0.73874	 1.13434	-0.35198	-1.28170	-1.46442	 0.00810	 0.00895	-1.59938	 1.02458	
 17669	-0.87028	 0.22155	-0.09119	 0.12979	-1.65780	-0.40038	-0.14616	-0.23647	-1.90599	-0.42645	 2.15039	 1.45938	-0.41873	 0.22700	-2.26814	-1.10420	 1.27573	 0.84016	-2.43214	-1.10430	 0.35306	 1.43811	-2.54796	-2.85849	 1.85884	 0.57897	 3.33478	-0.74077	 1.17675	-0.36791	-1.28562	-1.46168	 0.00810	 0.00895	-1.58664	 1.02682	
 17670	-0.77128	 0.07999	-0.09119	 0.12979	-1.65821	-0.40426	-0.13867	-0.23912	-1.90599	-0.42645	 2.14390	 1.45764	-0.41614	 0.23603	-2.27063	-1.11416	 1.27573	 0.84016	-2.77691	-0.60924	 0.35306	 1.43811	-1.86027	-3.10274	 1.86146	 0.58019	 3.33172	-0.74203	 1.17675	-0.36791	-1.28545	-1.45910	 0.00810	 0.00895	-1.57354	 1.03473	
 17671	-0.77128	 0.07999	-0.00002	-0.00001	-1.66668	-0.40108	-0.14616	-0.23647	-1.89680	-0.42990	 2.13742	 1.45588	-0.41614	 0.23603	-2.28581	-1.11934	 1.27089	 0.84701	-2.77691	-0.60924	 0.35306	 1.43811	-1.86027	-3.10274	 1.86146	 0.58019	 3.32876	-0.74214	 1.17675	-0.36791	-1.28813	-1.45813	 0.00739	 0.00996	-1.56178	 1.04242	
 17672	-0.77128	 0.07999	-0.09539	 0.03372	-1.67132	-0.40336	-0.16116	-0.23116	-1.90246	-0.42181	 2.12572	 1.45609	-0.41354	 0.24506	-2.28829	-1.12929	 1.25285	 0.85358	-3.13088	-0.10099	 0.34110	 1.44246	-1.86027	-3.10274	 1.85884	 0.57897	 3.32509	-0.74128	 1.17675	-0.36791	-1.29496	-1.45695	 0.00739	 0.00996	-1.55432	 1.04816	
 17673	-0.77128	 0.07999	-0.09539	 0.03372	-1.68486	-0.40634	-0.16839	-0.24491	-1.91165	-0.41836	 2.11277	 1.45260	-0.41354	 0.24506	-2.30346	-1.13446	 1.23965	 0.85329	-3.13088	-0.10099	 0.33857	 1.43348	-0.87662	-4.51515	 1.85157	 0.57949	 3.32145	-0.74043	 1.15746	-0.38532	-1.30211	-1.46096	 0.00810	 0.00895	-1.55587	 1.05242	
 17674	-0.87710	 0.11971	-0.09539	 0.03372	-1.70684	-0.40613	-0.20569	-0.23986	-1.92086	-0.41490	 2.10501	 1.44716	-0.41614	 0.23603	-2.32880	-1.12495	 1.21330	 0.85270	-3.13088	-0.10099	 0.33603	 1.42451	-0.87662	-4.51515	 1.83905	 0.57759	 3.31743	-0.73968	 1.13820	-0.40272	-1.31338	-1.46478	 0.00810	 0.00895	-1.56376	 1.05552	
 17675	-0.87710	 0.11971	-0.19045	 0.06734	-1.73722	-0.40278	-0.24277	-0.24302	-1.94275	-0.41265	 2.09728	 1.44170	-0.44289	 0.23607	-2.34393	-1.13012	 1.19182	 0.84525	-2.77691	-0.60924	 0.32157	 1.41988	-0.87662	-4.51515	 1.81721	 0.57919	 3.31232	-0.73926	 1.09591	-0.38684	-1.32466	-1.46860	 0.00664	 0.00952	-1.57276	 1.05616	
 17676	-0.98253	 0.15929	-0.19045	 0.06734	-1.76797	-0.40329	-0.27964	-0.25436	-1.95546	-0.41385	 2.08435	 1.43821	-0.45753	 0.23156	-2.34640	-1.14005	 1.16554	 0.84465	-2.77691	-0.60924	 0.30711	 1.41525	-0.87662	-4.51515	 1.79952	 0.57484	 3.30566	-0.73968	 1.07674	-0.40422	-1.33449	-1.47162	 0.00664	 0.00952	-1.58700	 1.05811	
 17677	-0.98253	 0.15929	-0.28519	 0.10085	-1.80328	-0.40611	-0.32400	-0.25490	-1.97518	-0.42433	 2.07660	 1.43278	-0.48421	 0.23158	-2.37168	-1.13056	 1.14411	 0.83721	-2.77691	-0.60924	 0.28077	 1.41496	-0.87662	-4.51515	 1.77512	 0.57521	 3.29761	-0.74126	 1.05758	-0.42158	-1.34270	-1.47127	 0.00664	 0.00952	-1.60058	 1.05912	
 17678	-0.98253	 0.15929	-0.28519	 0.10085	-1.83813	-0.40506	-0.36825	-0.25546	-1.99137	-0.43017	 2.06887	 1.42734	-0.49882	 0.22708	-2.38431	-1.12582	 1.12272	 0.82978	-2.77691	-0.60924	 0.26383	 1.40140	-0.87662	-4.51515	 1.75953	 0.56789	 3.28758	-0.74308	 1.01548	-0.40577	-1.35362	-1.46994	 0.00664	 0.00952	-1.61597	 1.05867	
 17679	-1.08758	 0.19873	-0.37962	 0.13425	-1.87330	-0.40789	-0.39742	-0.26944	-2.01668	-0.43257	 2.05206	 1.42949	-0.52288	 0.23611	-2.38676	-1.13574	 1.10136	 0.82234	-2.99559	-0.53157	 0.22568	 1.40543	-1.56431	-4.27090	 1.73985	 0.56650	 3.27644	-0.74519	 1.03845	-0.43890	-1.36577	-1.46683	 0.00739	 0.00996	-1.63372	 1.05550	
 17680	-1.18658	 0.34029	-0.47080	 0.26405	-1.90841	-0.41073	-0.43408	-0.27265	-2.04196	-0.43498	 2.03527	 1.43162	-0.53746	 0.23161	-2.39939	-1.13100	 1.08003	 0.81492	-2.99559	-0.53157	 0.19696	 1.39618	-1.56431	-4.27090	 1.72688	 0.56040	 3.26463	-0.74756	 0.99640	-0.42311	-1.37933	-1.46454	 0.00809	 0.01038	-1.65795	 1.05128	
 17681	-1.18658	 0.34029	-0.47080	 0.26405	-1.93586	-0.42442	-0.46330	-0.27847	-2.07071	-0.44201	 2.02366	 1.43182	-0.56403	 0.23161	-2.41200	-1.12626	 1.06285	 0.81106	-2.99559	-0.53157	 0.15894	 1.40019	-1.56431	-4.27090	 1.70982	 0.56024	 3.25092	-0.74968	 0.99640	-0.42311	-1.39306	-1.46480	 0.00954	 0.00981	-1.68053	 1.04277	
 17682	-1.18658	 0.34029	-0.47080	 0.26405	-1.97122	-0.43111	-0.47756	-0.29764	-2.09940	-0.44903	 2.01077	 1.42833	-0.59056	 0.23161	-2.42460	-1.12153	 1.03676	 0.81044	-2.99559	-0.53157	 0.13034	 1.39094	-1.56431	-4.27090	 1.69484	 0.55710	 3.23813	-0.75191	 0.99640	-0.42311	-1.40426	-1.46864	 0.00954	 0.00981	-1.69939	 1.03501	
 17683	-1.29128	 0.37960	-0.47374	 0.16754	-1.99857	-0.44477	-0.49932	-0.30605	-2.13364	-0.44804	 1.99791	 1.42484	-0.59564	 0.21360	-2.41445	-1.13617	 1.02854	 0.80333	-2.99559	-0.53157	 0.10425	 1.39062	-1.56431	-4.27090	 1.68037	 0.55815	 3.22811	-0.75370	 0.99640	-0.42311	-1.41670	-1.47071	 0.00954	 0.00981	-1.70742	 1.03018	
 17684	-1.19227	 0.23803	-0.47695	 0.07173	-2.02470	-0.44690	-0.51388	-0.30895	-2.14968	-0.45387	 1.98506	 1.42135	-0.61959	 0.22259	-2.42705	-1.13144	 1.01071	 0.80982	-2.99559	-0.53157	 0.09930	 1.37280	-1.56431	-4.27090	 1.68037	 0.55815	 3.22489	-0.75467	 0.99640	-0.42311	-1.42381	-1.47470	 0.01020	 0.00886	-1.70228	 1.02890	
 17685	-1.29658	 0.27719	-0.47695	 0.07173	-2.03264	-0.43994	-0.50669	-0.30345	-2.14968	-0.45387	 1.98253	 1.41399	-0.60761	 0.21809	-2.41445	-1.13617	 1.02373	 0.81013	-2.99559	-0.53157	 0.08752	 1.37709	-1.56431	-4.27090	 1.69741	 0.55832	 3.23071	-0.75370	 1.03845	-0.43890	-1.42274	-1.47903	 0.01091	 0.00784	-1.68303	 1.03000	
 17686	-1.19828	 0.13662	-0.38691	-0.05644	-1.99779	-0.43709	-0.47772	-0.28952	-2.13364	-0.44804	 1.99802	 1.40817	-0.58112	 0.21810	-2.41200	-1.12626	 1.04499	 0.81756	-2.99559	-0.53157	 0.11357	 1.37742	-2.23584	-4.03239	 1.73207	 0.56284	 3.24438	-0.74968	 1.01548	-0.40577	-1.41063	-1.48213	 0.01091	 0.00784	-1.65446	 1.03399	
 17687	-0.99636	-0.04212	-0.29309	-0.08962	-1.93169	-0.42599	-0.41208	-0.27235	-2.08679	-0.44784	 2.02121	 1.40778	-0.54947	 0.23612	-2.37168	-1.13056	 1.09242	 0.82560	-2.99559	-0.53157	 0.15396	 1.38234	-2.23584	-4.03239	 1.77718	 0.57224	 3.26322	-0.74372	 1.07674	-0.40422	-1.39158	-1.48379	 0.01011	 0.00746	-1.61742	 1.03819	
 17688	-0.99636	-0.04212	-0.10454	-0.15631	-1.83853	-0.40892	-0.31656	-0.25754	-2.03284	-0.43840	 2.05215	 1.41280	-0.50829	 0.24062	-2.32880	-1.12495	 1.13996	 0.83365	-2.99559	-0.53157	 0.21132	 1.40080	-2.23584	-4.03239	 1.82971	 0.58110	 3.28490	-0.73807	 1.09591	-0.38684	-1.36948	-1.48130	 0.00876	 0.00800	-1.57855	 1.04394	
 17689	-0.98928	 0.05816	-0.09984	-0.06165	-1.73641	-0.39503	-0.22811	-0.23192	-1.98785	-0.42554	 2.08705	 1.41219	-0.46702	 0.24512	-2.29602	-1.10463	 1.18351	 0.83811	-2.65081	-1.02664	 0.26888	 1.41929	-1.56431	-4.27090	 1.87247	 0.58928	 3.30294	-0.73274	 1.11511	-0.36942	-1.35145	-1.47864	 0.00810	 0.00895	-1.54226	 1.04923	
 17690	-0.98253	 0.15929	-0.09539	 0.03372	-1.64259	-0.38188	-0.13140	-0.22536	-1.93710	-0.42074	 2.11292	 1.41914	-0.42822	 0.24056	-2.25544	-1.10898	 1.21813	 0.84585	-2.43214	-1.10430	 0.33857	 1.43348	-1.56431	-4.27090	 1.90749	 0.59378	 3.31651	-0.72912	 1.13434	-0.35198	-1.34162	-1.47562	 0.00810	 0.00895	-1.51558	 1.05613	
 17691	-0.97610	 0.26128	-0.00002	-0.00001	-1.57122	-0.37634	-0.07173	-0.21377	-1.90813	-0.41371	 2.13235	 1.42436	-0.40144	 0.24052	-2.22749	-1.10858	 1.24449	 0.84643	-2.43214	-1.10430	 0.38205	 1.44740	-1.56431	-4.27090	 1.92738	 0.59514	 3.32409	-0.72688	 1.13434	-0.35198	-1.33878	-1.47401	 0.00739	 0.00996	-1.49583	 1.06068	
 17692	-0.87028	 0.22155	 0.00450	 0.09594	-1.53460	-0.36578	-0.02674	-0.21333	-1.88265	-0.41132	 2.13883	 1.42610	-0.38676	 0.24503	-2.20202	-1.11814	 1.25285	 0.85358	-2.55654	-0.68751	 0.41365	 1.46569	-0.87662	-4.51515	 1.93732	 0.59583	 3.32772	-0.72581	 1.13434	-0.35198	-1.34413	-1.47207	 0.00875	 0.00943	-1.48309	 1.06292	
 17693	-0.87028	 0.22155	-0.08727	 0.22659	-1.51197	-0.36211	-0.01185	-0.20220	-1.85713	-0.40894	 2.14275	 1.42046	-0.37205	 0.24954	-2.20202	-1.11814	 1.26605	 0.85388	-2.55654	-0.68751	 0.44021	 1.46597	-0.87662	-4.51515	 1.94671	 0.59230	 3.32843	-0.72560	 1.11511	-0.36942	-1.35629	-1.46897	 0.00875	 0.00943	-1.47338	 1.06126	
 17694	-0.97001	 0.36416	 0.00872	 0.19263	-1.50343	-0.36532	 0.00326	-0.20754	-1.84435	-0.40774	 2.13627	 1.41872	-0.36685	 0.26766	-2.20455	-1.12808	 1.27506	 0.85060	-2.55654	-0.68751	 0.46423	 1.45722	-1.86027	-3.10274	 1.94465	 0.59528	 3.32688	-0.72527	 1.11511	-0.36942	-1.37112	-1.46488	 0.00875	 0.00943	-1.46548	 1.05815	
 17695	-0.86381	 0.32429	 0.00872	 0.19263	-1.51197	-0.36211	-0.00430	-0.20487	-1.83726	-0.39843	 2.13369	 1.41134	-0.33997	 0.26762	-2.20706	-1.13802	 1.27991	 0.84373	-2.55654	-0.68751	 0.46423	 1.45722	-1.86027	-3.10274	 1.94202	 0.59406	 3.32450	-0.72559	 1.13820	-0.40272	-1.38058	-1.46277	 0.00875	 0.00943	-1.46145	 1.05440	
 17696	-0.86381	 0.32429	-0.08727	 0.22659	-1.52137	-0.36669	-0.01929	-0.20776	-1.83370	-0.39378	 2.12984	 1.40029	-0.33475	 0.28577	-2.22230	-1.14319	 1.27573	 0.84016	-2.43214	-1.10430	 0.45222	 1.46160	-1.86027	-3.10274	 1.93262	 0.59759	 3.31984	-0.72581	 1.13820	-0.40272	-1.39002	-1.46065	 0.00875	 0.00943	-1.45795	 1.04937	
 17697	-0.86381	 0.32429	-0.08727	 0.22659	-1.53544	-0.37357	-0.03427	-0.21066	-1.83370	-0.39378	 2.12208	 1.39487	-0.31045	 0.27665	-2.22483	-1.15311	 1.26670	 0.84344	-2.43214	-1.10430	 0.43765	 1.45695	-2.54796	-2.85849	 1.92531	 0.59812	 3.31411	-0.72634	 1.11511	-0.36942	-1.39682	-1.45948	 0.00739	 0.00996	-1.45453	 1.04660	
 17698	-0.86381	 0.32429	-0.08727	 0.22659	-1.55335	-0.37495	-0.05678	-0.21088	-1.83726	-0.39843	 2.11432	 1.38946	-0.30783	 0.28573	-2.24004	-1.15827	 1.26670	 0.84344	-2.77691	-0.60924	 0.41111	 1.45668	-2.23584	-4.03239	 1.91591	 0.60165	 3.30955	-0.72730	 1.15746	-0.38532	-1.40090	-1.45932	 0.00739	 0.00996	-1.45080	 1.04947	
 17699	-0.86381	 0.32429	-0.08727	 0.22659	-1.57122	-0.37634	-0.06421	-0.21643	-1.85002	-0.39963	 2.10784	 1.38773	-0.30783	 0.28573	-2.24255	-1.16818	 1.25769	 0.84673	-2.77691	-0.60924	 0.39657	 1.45203	-1.32010	-5.34730	 1.91591	 0.60165	 3.30695	-0.72730	 1.13434	-0.35198	-1.40233	-1.46012	 0.00875	 0.00943	-1.43828	 1.05617	
 17700	-0.86381	 0.32429	-0.09119	 0.12979	-1.57632	-0.38252	-0.07173	-0.21377	-1.85359	-0.40428	 2.11174	 1.38211	-0.30522	 0.29484	-2.24255	-1.16818	 1.25285	 0.85358	-2.77691	-0.60924	 0.38459	 1.45639	-1.32010	-5.34730	 1.91647	 0.60586	 3.30708	-0.72687	 1.13434	-0.35198	-1.40233	-1.46012	 0.00875	 0.00943	-1.42105	 1.07044	
 17701	-0.76408	 0.18168	-0.09119	 0.12979	-1.57674	-0.38640	-0.07173	-0.21377	-1.84791	-0.41240	 2.10784	 1.38773	-0.29304	 0.29026	-2.24255	-1.16818	 1.26186	 0.85030	-2.77691	-0.60924	 0.38459	 1.45639	-1.56431	-4.27090	 1.92379	 0.60532	 3.30878	-0.72560	 1.13434	-0.35198	-1.39949	-1.45851	 0.00875	 0.00943	-1.40070	 1.08856	
 17702	-0.87028	 0.22155	-0.00002	-0.00001	-1.57248	-0.38800	-0.06421	-0.21643	-1.85713	-0.40894	 2.10784	 1.38773	-0.28087	 0.28569	-2.24004	-1.15827	 1.25702	 0.85717	-2.99559	-0.53157	 0.39657	 1.45203	-0.87662	-4.51515	 1.93111	 0.60479	 3.31086	-0.72420	 1.15746	-0.38532	-1.39664	-1.45692	 0.00875	 0.00943	-1.38039	 1.10674	
 17703	-0.77128	 0.07999	-0.00002	-0.00001	-1.57674	-0.38640	-0.07173	-0.21377	-1.86635	-0.40548	 2.11303	 1.38578	-0.29043	 0.29937	-2.23754	-1.14834	 1.25285	 0.85358	-2.99559	-0.53157	 0.39657	 1.45203	-1.86027	-3.10274	 1.93373	 0.60601	 3.31141	-0.72250	 1.11511	-0.36942	-1.39771	-1.45256	 0.00945	 0.00841	-1.37101	 1.12415	
 17704	-0.87710	 0.11971	 0.09060	-0.12900	-1.58568	-0.38709	-0.07915	-0.21933	-1.86990	-0.41012	 2.11303	 1.38578	-0.29304	 0.29026	-2.23502	-1.13841	 1.25285	 0.85358	-2.99559	-0.53157	 0.39911	 1.46104	-1.86027	-3.10274	 1.93111	 0.60479	 3.30969	-0.72067	 1.11511	-0.36942	-1.40042	-1.45158	 0.00810	 0.00895	-1.37165	 1.13747	
 17705	-0.87710	 0.11971	 0.09060	-0.12900	-1.60735	-0.38300	-0.10160	-0.21957	-1.88265	-0.41132	 2.11303	 1.38578	-0.30783	 0.28573	-2.22230	-1.14319	 1.24449	 0.84643	-2.77691	-0.60924	 0.39911	 1.46104	-1.86027	-3.10274	 1.92586	 0.60234	 3.30569	-0.71875	 1.07282	-0.35355	-1.40450	-1.45142	 0.00810	 0.00895	-1.38499	 1.14637	
 17706	-0.97610	 0.26128	 0.09060	-0.12900	-1.63409	-0.38507	-0.13140	-0.22536	-1.90459	-0.40906	 2.11303	 1.38578	-0.32521	 0.27213	-2.23250	-1.12848	 1.21813	 0.84585	-2.77691	-0.60924	 0.39657	 1.45203	-1.86027	-3.10274	 1.91329	 0.60043	 3.30017	-0.71770	 1.03060	-0.33770	-1.41286	-1.45364	 0.00810	 0.00895	-1.40772	 1.14802	
 17707	-0.97610	 0.26128	 0.09568	-0.03386	-1.66121	-0.39104	-0.16865	-0.22851	-1.93357	-0.41610	 2.10265	 1.38968	-0.36685	 0.26766	-2.23000	-1.11852	 1.18766	 0.84169	-2.55654	-0.68751	 0.37262	 1.46076	-1.86027	-3.10274	 1.89811	 0.59730	 3.29325	-0.71779	 1.05369	-0.37099	-1.42120	-1.45589	 0.00810	 0.00895	-1.43324	 1.14352	
 17708	-0.97610	 0.26128	-0.00002	-0.00001	-1.68867	-0.40088	-0.19821	-0.24250	-1.96249	-0.42314	 2.09619	 1.38795	-0.39886	 0.24958	-2.21727	-1.12330	 1.16207	 0.83067	-2.21177	-1.18257	 0.35812	 1.45611	-1.86027	-3.10274	 1.88087	 0.59715	 3.28325	-0.71844	 1.03456	-0.38839	-1.43223	-1.45714	 0.00810	 0.00895	-1.45597	 1.13501	
 17709	-0.97610	 0.26128	-0.09119	 0.12979	-1.72455	-0.40754	-0.23531	-0.24566	-1.99487	-0.43481	 2.07937	 1.39011	-0.44030	 0.24510	-2.22749	-1.10858	 1.14065	 0.82325	-2.43214	-1.10430	 0.33167	 1.45581	-2.54796	-2.85849	 1.86365	 0.59699	 3.27190	-0.72025	 0.99247	-0.37259	-1.44184	-1.45760	 0.00810	 0.00895	-1.47551	 1.12599	
 17710	-1.08153	 0.30086	-0.18657	 0.16352	-1.76035	-0.41419	-0.26474	-0.25963	-2.02720	-0.44646	 2.06130	 1.38857	-0.46959	 0.23609	-2.22749	-1.10858	 1.11445	 0.82265	-2.43214	-1.10430	 0.31470	 1.44217	-2.54796	-2.85849	 1.84645	 0.59684	 3.25913	-0.72250	 1.01548	-0.40577	-1.44861	-1.45645	 0.00810	 0.00895	-1.48790	 1.11707	
 17711	-1.08153	 0.30086	-0.28163	 0.19714	-1.79987	-0.41542	-0.28666	-0.27622	-2.05032	-0.46153	 2.04195	 1.38337	-0.49369	 0.24513	-2.25292	-1.09903	 1.10136	 0.82234	-2.43214	-1.10430	 0.28581	 1.43290	-1.56431	-4.27090	 1.82721	 0.59966	 3.24681	-0.72539	 1.01548	-0.40577	-1.45520	-1.45274	 0.00810	 0.00895	-1.49927	 1.11286	
 17712	-1.18658	 0.34029	-0.37637	 0.23065	-1.83553	-0.42208	-0.31613	-0.28201	-2.08466	-0.46050	 2.02136	 1.37451	-0.51776	 0.25417	-2.26814	-1.10420	 1.08347	 0.82886	-2.77691	-0.60924	 0.25698	 1.42363	-1.56431	-4.27090	 1.80797	 0.60247	 3.23519	-0.72804	 1.05758	-0.42158	-1.45771	-1.44918	 0.00810	 0.00895	-1.50685	 1.11146	
 17713	-1.18658	 0.34029	-0.28519	 0.10085	-1.87489	-0.42332	-0.35296	-0.28517	-2.10073	-0.46632	 2.00080	 1.36565	-0.52981	 0.25870	-2.30869	-1.09987	 1.06147	 0.83180	-2.77691	-0.60924	 0.23756	 1.40110	-1.32010	-5.34730	 1.79549	 0.60055	 3.22448	-0.73009	 1.05758	-0.42158	-1.46021	-1.44565	 0.00810	 0.00895	-1.51404	 1.11355	
 17714	-1.19227	 0.23803	-0.37962	 0.13425	-1.90999	-0.42614	-0.38986	-0.28021	-2.11679	-0.47213	 1.97640	 1.36238	-0.54438	 0.25417	-2.32633	-1.11501	 1.03949	 0.83474	-3.13088	-0.10099	 0.20881	 1.39186	-2.23584	-4.03239	 1.77836	 0.60037	 3.21379	-0.73095	 1.05758	-0.42158	-1.46414	-1.44288	 0.00810	 0.00895	-1.52398	 1.11746	
 17715	-1.19227	 0.23803	-0.47374	 0.16754	-1.94501	-0.42897	-0.42653	-0.28340	-2.13846	-0.46991	 1.95715	 1.35720	-0.55894	 0.24965	-2.34393	-1.13012	 1.02235	 0.83086	-2.77691	-0.60924	 0.18011	 1.38265	-2.23584	-4.03239	 1.76590	 0.59845	 3.20477	-0.73170	 1.03456	-0.38839	-1.46962	-1.44353	 0.00810	 0.00895	-1.53706	 1.12192	
 17716	-1.19227	 0.23803	-0.38313	 0.03855	-1.97579	-0.43339	-0.45592	-0.28108	-2.16915	-0.46431	 1.94434	 1.35374	-0.57349	 0.24513	-2.34888	-1.14996	 0.99632	 0.83022	-2.77691	-0.60924	 0.15396	 1.38234	-2.23584	-4.03239	 1.75863	 0.59898	 3.19769	-0.73149	 0.99247	-0.37259	-1.47798	-1.44576	 0.00810	 0.00895	-1.54619	 1.12477	
 17717	-1.19828	 0.13662	-0.29309	-0.08962	-1.98530	-0.44178	-0.46314	-0.28660	-2.17262	-0.46891	 1.94308	 1.35008	-0.57603	 0.23612	-2.36151	-1.14522	 0.99221	 0.82666	-2.43214	-1.10430	 0.13967	 1.37772	-1.56431	-4.27090	 1.76590	 0.59845	 3.19643	-0.73032	 0.95042	-0.35680	-1.48505	-1.44976	 0.00810	 0.00895	-1.54632	 1.12699	
 17718	-1.19828	 0.13662	-0.29309	-0.08962	-1.97201	-0.43880	-0.44131	-0.27818	-2.16007	-0.46771	 1.94948	 1.35181	-0.56403	 0.23161	-2.34888	-1.14996	 1.00522	 0.82698	-2.43214	-1.10430	 0.13967	 1.37772	-1.56431	-4.27090	 1.78822	 0.60108	 3.20197	-0.72712	 0.95042	-0.35680	-1.48661	-1.45315	 0.00739	 0.00996	-1.53612	 1.12879	
 17719	-1.09397	 0.09746	-0.19458	-0.02814	-1.91495	-0.43227	-0.38276	-0.26654	-2.12241	-0.46410	 1.96997	 1.36066	-0.52545	 0.22710	-2.32109	-1.14955	 1.03949	 0.83474	-2.43214	-1.10430	 0.15646	 1.39126	-1.56431	-4.27090	 1.82829	 0.60806	 3.21371	-0.72283	 0.96942	-0.33936	-1.48130	-1.45508	 0.00739	 0.00996	-1.51814	 1.12971	
 17720	-0.98253	 0.15929	-0.19045	 0.06734	-1.82252	-0.42295	-0.30212	-0.23828	-2.05945	-0.45811	 2.00595	 1.36371	-0.48421	 0.23158	-2.30346	-1.13446	 1.08691	 0.84282	-2.43214	-1.10430	 0.20881	 1.39186	-1.56431	-4.27090	 1.87839	 0.61574	 3.22939	-0.71857	 1.01152	-0.35516	-1.47048	-1.45638	 0.00809	 0.01038	-1.49822	 1.12985	
 17721	-0.97610	 0.26128	-0.09119	 0.12979	-1.71107	-0.40455	-0.19112	-0.22056	-1.99626	-0.45213	 2.03425	 1.37796	-0.44030	 0.24510	-2.26042	-1.12887	 1.13860	 0.85446	-2.43214	-1.10430	 0.26635	 1.41034	-1.56431	-4.27090	 1.92392	 0.62517	 3.24480	-0.71515	 1.07282	-0.35355	-1.45961	-1.45771	 0.00809	 0.01038	-1.47489	 1.12722	
 17722	-0.97001	 0.36416	 0.00872	 0.19263	-1.59928	-0.39006	-0.09457	-0.18933	-1.93850	-0.43810	 2.07165	 1.38469	-0.38416	 0.25408	-2.23000	-1.11852	 1.18632	 0.86252	-2.77691	-0.60924	 0.33603	 1.42451	-1.56431	-4.27090	 1.96168	 0.63093	 3.25734	-0.71258	 1.09199	-0.33609	-1.45412	-1.45709	 0.00875	 0.00943	-1.45022	 1.12260	
 17723	-0.86381	 0.32429	 0.10505	 0.15857	-1.50898	-0.37540	-0.00474	-0.17188	-1.90246	-0.42181	 2.09748	 1.39162	-0.33997	 0.26762	-2.18676	-1.11296	 1.22095	 0.87029	-2.77691	-0.60924	 0.40345	 1.42969	-1.86027	-3.10274	 1.98482	 0.63776	 3.26666	-0.71098	 1.13434	-0.35198	-1.45287	-1.45885	 0.00875	 0.00943	-1.42799	 1.11749	
 17724	-0.85766	 0.42790	 0.20170	 0.12438	-1.44139	-0.36831	 0.05542	-0.16026	-1.86423	-0.41823	 2.12337	 1.39855	-0.30091	 0.26301	-2.15619	-1.10260	 1.24733	 0.87089	-2.77691	-0.60924	 0.44709	 1.44358	-1.86027	-3.10274	 2.00217	 0.63790	 3.27309	-0.71021	 1.13434	-0.35198	-1.45697	-1.45867	 0.00875	 0.00943	-1.41110	 1.11375	
 17725	-0.85766	 0.42790	 0.20170	 0.12438	-1.40875	-0.35617	 0.10079	-0.15982	-1.84224	-0.42051	 2.13760	 1.40571	-0.27394	 0.26294	-2.12809	-1.10222	 1.26052	 0.87119	-2.77691	-0.60924	 0.47883	 1.46186	-1.86027	-3.10274	 2.00745	 0.64036	 3.27789	-0.70959	 1.17675	-0.36791	-1.45979	-1.46027	 0.00810	 0.00895	-1.39658	 1.10947	
 17726	-0.85766	 0.42790	 0.29868	 0.09008	-1.38640	-0.35642	 0.13113	-0.16231	-1.83300	-0.42398	 2.15575	 1.40724	-0.27131	 0.27202	-2.09996	-1.10184	 1.26471	 0.87477	-2.77691	-0.60924	 0.50549	 1.46212	-1.86027	-3.10274	 2.01217	 0.63859	 3.28038	-0.70882	 1.17675	-0.36791	-1.46405	-1.46268	 0.00810	 0.00895	-1.39077	 1.10935	
 17727	-0.75069	 0.38774	 0.29868	 0.09008	-1.37737	-0.35573	 0.14636	-0.16770	-1.83300	-0.42398	 2.16875	 1.41070	-0.25912	 0.26745	-2.07433	-1.11146	 1.26471	 0.87477	-2.77691	-0.60924	 0.52011	 1.46676	-1.86027	-3.10274	 2.01689	 0.63681	 3.28161	-0.70808	 1.17675	-0.36791	-1.46954	-1.46331	 0.00945	 0.00841	-1.38829	 1.10985	
 17728	-0.85187	 0.53242	 0.39597	 0.05567	-1.37737	-0.35573	 0.14636	-0.16770	-1.82733	-0.43208	 2.17525	 1.41243	-0.26868	 0.28112	-2.07178	-1.10147	 1.26956	 0.86791	-2.77691	-0.60924	 0.52268	 1.47580	-2.54796	-2.85849	 2.01217	 0.63859	 3.28138	-0.70776	 1.13434	-0.35198	-1.47255	-1.46748	 0.00945	 0.00841	-1.38966	 1.11182	
 17729	-0.75069	 0.38774	 0.39597	 0.05567	-1.38211	-0.35803	 0.13883	-0.17328	-1.83089	-0.43673	 2.18566	 1.40852	-0.28087	 0.28569	-2.05896	-1.10628	 1.26538	 0.86432	-2.77691	-0.60924	 0.53216	 1.46238	-2.54796	-2.85849	 2.00745	 0.64036	 3.28029	-0.70807	 1.13434	-0.35198	-1.48088	-1.46971	 0.01091	 0.00784	-1.39427	 1.11437	
 17730	-0.75069	 0.38774	 0.39597	 0.05567	-1.39544	-0.35710	 0.12361	-0.16789	-1.83445	-0.44137	 2.18174	 1.41417	-0.28087	 0.28569	-2.05896	-1.10628	 1.25217	 0.86403	-2.77691	-0.60924	 0.52959	 1.45334	-1.56431	-4.27090	 2.00273	 0.64213	 3.27813	-0.70871	 1.15746	-0.38532	-1.49328	-1.47176	 0.01091	 0.00784	-1.40079	 1.11551	
 17731	-0.75069	 0.38774	 0.29868	 0.09008	-1.40875	-0.35617	 0.10849	-0.17079	-1.84367	-0.43790	 2.18174	 1.41417	-0.27131	 0.27202	-2.05640	-1.09629	 1.24383	 0.85686	-2.77691	-0.60924	 0.52699	 1.44433	-1.56431	-4.27090	 1.99801	 0.64390	 3.27583	-0.70979	 1.11511	-0.36942	-1.50709	-1.47462	 0.01091	 0.00784	-1.40971	 1.11390	
 17732	-0.65024	 0.24411	 0.29868	 0.09008	-1.42206	-0.35524	 0.08568	-0.16272	-1.85289	-0.43444	 2.18566	 1.40852	-0.27131	 0.27202	-2.05640	-1.09629	 1.23965	 0.85329	-2.55654	-0.68751	 0.51495	 1.44871	-0.64857	-5.58581	 1.99328	 0.64567	 3.27199	-0.71053	 1.13820	-0.40272	-1.52356	-1.47650	 0.01091	 0.00784	-1.41718	 1.10816	
 17733	-0.65024	 0.24411	 0.20170	 0.12438	-1.42678	-0.35754	 0.08578	-0.17100	-1.85289	-0.43444	 2.18566	 1.40852	-0.25912	 0.26745	-2.05640	-1.09629	 1.23064	 0.85657	-2.55654	-0.68751	 0.51236	 1.43970	-0.64857	-5.58581	 1.99328	 0.64567	 3.26702	-0.71087	 1.09591	-0.38684	-1.53733	-1.47936	 0.01091	 0.00784	-1.42243	 1.09711	
 17734	-0.75069	 0.38774	 0.20170	 0.12438	-1.42722	-0.36144	 0.07808	-0.16003	-1.85855	-0.42634	 2.18957	 1.40288	-0.24694	 0.26287	-2.05640	-1.09629	 1.23064	 0.85657	-2.55654	-0.68751	 0.50290	 1.45310	-0.87662	-4.51515	 1.99120	 0.64868	 3.26164	-0.71128	 1.09591	-0.38684	-1.54970	-1.48142	 0.01020	 0.00886	-1.42498	 1.08431	
 17735	-0.75069	 0.38774	 0.20170	 0.12438	-1.42336	-0.36696	 0.08578	-0.17100	-1.84933	-0.42981	 2.19219	 1.39356	-0.24429	 0.27196	-2.04613	-1.11110	 1.23064	 0.85657	-2.55654	-0.68751	 0.49086	 1.45748	-0.87662	-4.51515	 1.99120	 0.64868	 3.25549	-0.71118	 1.09591	-0.38684	-1.56206	-1.48347	 0.01020	 0.00886	-1.42770	 1.07380	
 17736	-0.75069	 0.38774	 0.10935	 0.25585	-1.41951	-0.37246	 0.08578	-0.17100	-1.84579	-0.42516	 2.18960	 1.38619	-0.23210	 0.26739	-2.05896	-1.10628	 1.22580	 0.86343	-2.55654	-0.68751	 0.47883	 1.46186	-0.87662	-4.51515	 1.99120	 0.64868	 3.24968	-0.71098	 1.13820	-0.40272	-1.57298	-1.48475	 0.01020	 0.00886	-1.42531	 1.06630	
 17737	-0.75069	 0.38774	 0.10935	 0.25585	-1.42852	-0.37314	 0.08598	-0.18752	-1.84579	-0.42516	 2.18180	 1.38078	-0.24166	 0.28106	-2.06151	-1.11628	 1.23064	 0.85657	-2.77691	-0.60924	 0.47626	 1.45285	-0.87662	-4.51515	 1.98386	 0.64921	 3.24388	-0.71077	 1.15746	-0.38532	-1.58252	-1.48520	 0.00875	 0.00943	-1.42199	 1.06357	
 17738	-0.75069	 0.38774	 0.10935	 0.25585	-1.44653	-0.37450	 0.07090	-0.19042	-1.85501	-0.42170	 2.17011	 1.38100	-0.25123	 0.29474	-2.07690	-1.12144	 1.22164	 0.85985	-2.77691	-0.60924	 0.46423	 1.45722	-1.86027	-3.10274	 1.97178	 0.65153	 3.23879	-0.71034	 1.15746	-0.38532	-1.58937	-1.48665	 0.00875	 0.00943	-1.42092	 1.06822	
 17739	-0.85766	 0.42790	 0.10935	 0.25585	-1.46923	-0.37816	 0.04836	-0.19888	-1.86776	-0.42289	 2.16232	 1.37560	-0.26080	 0.30842	-2.08970	-1.11663	 1.20430	 0.85597	-2.99559	-0.53157	 0.44966	 1.45258	-1.86027	-3.10274	 1.96389	 0.64783	 3.23500	-0.70990	 1.15746	-0.38532	-1.59220	-1.48823	 0.00875	 0.00943	-1.41874	 1.07535	
 17740	-0.75722	 0.28427	 0.10505	 0.15857	-1.50044	-0.37860	 0.01828	-0.20465	-1.88972	-0.42062	 2.14674	 1.38145	-0.26342	 0.29932	-2.10251	-1.11182	 1.18699	 0.85210	-2.65081	-1.02664	 0.44709	 1.44358	-0.87662	-4.51515	 1.94922	 0.64891	 3.23136	-0.70905	 1.13820	-0.40272	-1.59624	-1.48807	 0.00875	 0.00943	-1.42045	 1.08401	
 17741	-0.86381	 0.32429	 0.19682	 0.02792	-1.53629	-0.38135	-0.01929	-0.20776	-1.90599	-0.42645	 2.13636	 1.38535	-0.29043	 0.29937	-2.12809	-1.10222	 1.16554	 0.84465	-2.65081	-1.02664	 0.42055	 1.44331	-0.87662	-4.51515	 1.93191	 0.64875	 3.22749	-0.70788	 1.09591	-0.38684	-1.60155	-1.48614	 0.00875	 0.00943	-1.42532	 1.09100	
 17742	-0.87028	 0.22155	 0.10049	 0.06199	-1.57206	-0.38411	-0.06432	-0.20821	-1.92579	-0.43692	 2.12989	 1.38361	-0.31739	 0.29941	-2.15367	-1.09262	 1.13515	 0.84047	-2.99559	-0.53157	 0.39402	 1.44303	-0.87662	-4.51515	 1.91670	 0.64560	 3.22290	-0.70694	 1.07674	-0.40422	-1.60155	-1.48614	 0.00875	 0.00943	-1.43459	 1.09608	
 17743	-0.87028	 0.22155	 0.10049	 0.06199	-1.60819	-0.39076	-0.10924	-0.20869	-1.94201	-0.44275	 2.11303	 1.38578	-0.34691	 0.29034	-2.17921	-1.08303	 1.10000	 0.84312	-2.99559	-0.53157	 0.36500	 1.43376	-0.87662	-4.51515	 1.89682	 0.64420	 3.21675	-0.70684	 1.05758	-0.42158	-1.60544	-1.48341	 0.00809	 0.01038	-1.44440	 1.09777	
 17744	-0.87028	 0.22155	 0.00450	 0.09594	-1.64806	-0.39194	-0.14642	-0.22005	-1.96741	-0.44512	 2.09492	 1.38427	-0.36424	 0.27673	-2.20724	-1.08344	 1.07384	 0.84250	-2.99559	-0.53157	 0.33857	 1.43348	-1.56431	-4.27090	 1.87695	 0.64281	 3.20903	-0.70758	 1.01548	-0.40577	-1.60808	-1.48245	 0.00809	 0.01038	-1.46117	 1.09929	
 17745	-0.87028	 0.22155	-0.08727	 0.22659	-1.67980	-0.40018	-0.19112	-0.22056	-1.98359	-0.45094	 2.07554	 1.37907	-0.39367	 0.26769	-2.22248	-1.08864	 1.04773	 0.84187	-2.99559	-0.53157	 0.32157	 1.41988	-0.87662	-4.51515	 1.85243	 0.64317	 3.19990	-0.70879	 1.01548	-0.40577	-1.61339	-1.48051	 0.00809	 0.01038	-1.48171	 1.09792	
 17746	-0.87028	 0.22155	-0.08727	 0.22659	-1.71529	-0.40296	-0.22064	-0.23457	-2.00892	-0.45332	 2.05102	 1.37582	-0.42046	 0.26771	-2.22499	-1.09861	 1.02646	 0.83442	-2.86785	-0.94955	 0.28581	 1.43290	-0.87662	-4.51515	 1.83675	 0.63579	 3.18966	-0.71028	 0.97343	-0.38999	-1.62006	-1.47940	 0.00809	 0.01038	-1.50865	 1.09546	
 17747	-0.97001	 0.36416	-0.08727	 0.22659	-1.74648	-0.40735	-0.25024	-0.24038	-2.04897	-0.44423	 2.02652	 1.37257	-0.44722	 0.26773	-2.23000	-1.11852	 1.01002	 0.82017	-2.86785	-0.94955	 0.26888	 1.41929	-1.15557	-3.35303	 1.81435	 0.63316	 3.17802	-0.71223	 0.93146	-0.37423	-1.62818	-1.47905	 0.00875	 0.00943	-1.53465	 1.08972	
 17748	-1.07583	 0.40388	-0.09119	 0.12979	-1.78142	-0.40628	-0.27220	-0.25699	-2.06508	-0.45005	 2.00334	 1.37299	-0.46187	 0.26320	-2.24522	-1.12370	 0.98880	 0.81275	-2.86785	-0.94955	 0.23069	 1.42332	-0.17193	-4.76544	 1.79405	 0.62754	 3.16623	-0.71458	 0.93146	-0.37423	-1.63767	-1.47954	 0.00875	 0.00943	-1.55951	 1.08427	
 17749	-1.07583	 0.40388	-0.09119	 0.12979	-1.80829	-0.41226	-0.29424	-0.26543	-2.09029	-0.45245	 1.99438	 1.36391	-0.48599	 0.27226	-2.25023	-1.14358	 0.97171	 0.80888	-2.86785	-0.94955	 0.20196	 1.41406	-0.87662	-4.51515	 1.77896	 0.62438	 3.15532	-0.71630	 0.93146	-0.37423	-1.64842	-1.47823	 0.00875	 0.00943	-1.58112	 1.08045	
 17750	-1.07583	 0.40388	-0.09119	 0.12979	-1.82633	-0.41751	-0.30155	-0.27095	-2.09377	-0.45708	 1.98795	 1.36219	-0.48599	 0.27226	-2.25273	-1.15350	 0.95803	 0.81890	-2.99559	-0.53157	 0.17328	 1.40480	-0.87662	-4.51515	 1.77843	 0.62017	 3.14855	-0.71716	 0.97343	-0.38999	-1.65387	-1.47886	 0.00875	 0.00943	-1.59651	 1.08000	
 17751	-0.97001	 0.36416	-0.09119	 0.12979	-1.82171	-0.41524	-0.28680	-0.26806	-2.08466	-0.46050	 1.98795	 1.36219	-0.47393	 0.26773	-2.25273	-1.15350	 0.97512	 0.82278	-2.99559	-0.53157	 0.14960	 1.41342	-1.56431	-4.27090	 1.79091	 0.62209	 3.14891	-0.71705	 0.99247	-0.37259	-1.65107	-1.47727	 0.00875	 0.00943	-1.59594	 1.08120	
 17752	-0.97001	 0.36416	 0.00450	 0.09594	-1.78183	-0.41015	-0.23505	-0.26201	-2.05032	-0.46153	 2.00080	 1.36565	-0.44722	 0.26773	-2.24004	-1.15827	 1.00933	 0.83054	-2.77691	-0.60924	 0.16143	 1.40911	-1.56431	-4.27090	 1.82370	 0.62965	 3.15734	-0.71609	 0.96942	-0.33936	-1.63613	-1.47616	 0.00875	 0.00943	-1.57810	 1.08434	
 17753	-0.86381	 0.32429	 0.10049	 0.06199	-1.70601	-0.39839	-0.15354	-0.24201	-2.00540	-0.44870	 2.02010	 1.37084	-0.39367	 0.26769	-2.22483	-1.15311	 1.05666	 0.83861	-2.77691	-0.60924	 0.19010	 1.41838	-1.56431	-4.27090	 1.87379	 0.63735	 3.17193	-0.71405	 0.98843	-0.32187	-1.61151	-1.47202	 0.00809	 0.01038	-1.54628	 1.08996	
 17754	-0.65024	 0.24411	 0.20170	 0.12438	-1.60311	-0.38459	-0.05678	-0.21088	-1.94201	-0.44275	 2.04069	 1.37970	-0.33737	 0.27670	-2.19686	-1.15274	 1.09931	 0.85352	-2.77691	-0.60924	 0.24508	 1.42796	-0.87662	-4.51515	 1.92403	 0.64506	 3.18843	-0.71102	 1.07282	-0.35355	-1.58544	-1.46710	 0.00875	 0.00943	-1.51131	 1.09724	
 17755	-0.64331	 0.34743	 0.29868	 0.09008	-1.49061	-0.37013	 0.05582	-0.19330	-1.88406	-0.42872	 2.07165	 1.38469	-0.28087	 0.28569	-2.16886	-1.15237	 1.14690	 0.86160	-2.99559	-0.53157	 0.31217	 1.43320	-0.87662	-4.51515	 1.96236	 0.65507	 3.20394	-0.70716	 1.09199	-0.33609	-1.56075	-1.46296	 0.00875	 0.00943	-1.48069	 1.10264	
 17756	-0.54287	 0.20380	 0.30362	 0.18714	-1.39544	-0.35710	 0.13874	-0.16501	-1.84435	-0.40774	 2.09358	 1.39724	-0.24859	 0.30384	-2.14081	-1.15201	 1.17248	 0.87265	-2.65081	-1.02664	 0.37008	 1.45175	-1.56431	-4.27090	 1.99496	 0.65838	 3.21629	-0.70309	 1.09199	-0.33609	-1.54167	-1.46203	 0.00875	 0.00943	-1.46090	 1.10501	
 17757	-0.43510	 0.16335	 0.30362	 0.18714	-1.32649	-0.34222	 0.20705	-0.15614	-1.80597	-0.40419	 2.12465	 1.40224	-0.20932	 0.29920	-2.11272	-1.15166	 1.18978	 0.87654	-2.65081	-1.02664	 0.43510	 1.44794	-0.64857	-5.58581	 2.01231	 0.65853	 3.22538	-0.69998	 1.13434	-0.35198	-1.53211	-1.46157	 0.00945	 0.00841	-1.45233	 1.10306	
 17758	-0.43510	 0.16335	 0.30362	 0.18714	-1.28067	-0.33490	 0.24506	-0.14477	-1.78604	-0.39368	 2.14536	 1.41114	-0.19445	 0.30373	-2.09481	-1.13657	 1.20778	 0.86999	-2.43214	-1.10430	 0.46423	 1.45722	-0.64857	-5.58581	 2.01496	 0.65976	 3.23150	-0.69818	 1.15746	-0.38532	-1.52680	-1.46350	 0.00810	 0.00895	-1.45287	 1.09968	
 17759	-0.43510	 0.16335	 0.40126	 0.15261	-1.26161	-0.32569	 0.26790	-0.13628	-1.76395	-0.39597	 2.16875	 1.41070	-0.18221	 0.29914	-2.08716	-1.10665	 1.20778	 0.86999	-2.43214	-1.10430	 0.48140	 1.47088	-1.56431	-4.27090	 2.01967	 0.65799	 3.23461	-0.69763	 1.15746	-0.38532	-1.52680	-1.46350	 0.00810	 0.00895	-1.45713	 1.09554	
 17760	-0.43510	 0.16335	 0.40126	 0.15261	-1.25250	-0.32502	 0.28323	-0.14171	-1.75111	-0.39478	 2.18566	 1.40852	-0.17956	 0.30826	-2.07178	-1.10147	 1.21262	 0.86313	-2.43214	-1.10430	 0.50549	 1.46212	-0.87662	-4.51515	 2.01967	 0.65799	 3.23587	-0.69880	 1.15746	-0.38532	-1.52537	-1.46271	 0.00810	 0.00895	-1.46069	 1.09038	
 17761	-0.53555	 0.30697	 0.30830	 0.28493	-1.25206	-0.32109	 0.27556	-0.13899	-1.74753	-0.39012	 2.19737	 1.40830	-0.16730	 0.30366	-2.06923	-1.09147	 1.20362	 0.86641	-2.77691	-0.60924	 0.51753	 1.45773	-1.86027	-3.10274	 2.02176	 0.65498	 3.23463	-0.70074	 1.15746	-0.38532	-1.52523	-1.46013	 0.00810	 0.00895	-1.46371	 1.08649	
 17762	-0.53555	 0.30697	 0.40626	 0.25029	-1.26116	-0.32177	 0.27564	-0.14730	-1.73827	-0.39360	 2.20908	 1.40809	-0.15505	 0.29906	-2.06668	-1.08147	 1.20362	 0.86641	-2.77691	-0.60924	 0.51753	 1.45773	-1.15557	-3.35303	 2.01440	 0.65552	 3.23123	-0.70331	 1.19987	-0.40124	-1.52238	-1.45854	 0.00810	 0.00895	-1.46687	 1.08483	
 17763	-0.63673	 0.45166	 0.40626	 0.25029	-1.27071	-0.32637	 0.25272	-0.14748	-1.74184	-0.39826	 2.21429	 1.40613	-0.15505	 0.29906	-2.06668	-1.08147	 1.18562	 0.87296	-2.55654	-0.68751	 0.50549	 1.46212	-1.15557	-3.35303	 2.00440	 0.65483	 3.22556	-0.70576	 1.15746	-0.38532	-1.52081	-1.45518	 0.00810	 0.00895	-1.46882	 1.08559	
 17764	-0.63673	 0.45166	 0.40626	 0.25029	-1.28931	-0.33166	 0.22218	-0.14495	-1.75111	-0.39478	 2.21429	 1.40613	-0.15505	 0.29906	-2.06923	-1.09147	 1.18148	 0.86938	-2.91051	-0.17926	 0.49344	 1.46650	-0.17193	-4.76544	 1.99440	 0.65414	 3.22004	-0.70780	 1.13434	-0.35198	-1.52068	-1.45258	 0.00810	 0.00895	-1.47356	 1.09037	
 17765	-0.73867	 0.59742	 0.40626	 0.25029	-1.30791	-0.33694	 0.20705	-0.15614	-1.75468	-0.39945	 2.20517	 1.41373	-0.17690	 0.31738	-2.07178	-1.10147	 1.16833	 0.86907	-2.91051	-0.17926	 0.49086	 1.45748	-0.17193	-4.76544	 1.98440	 0.65345	 3.21492	-0.70854	 1.13434	-0.35198	-1.52068	-1.45258	 0.00945	 0.00841	-1.47631	 1.09219	
 17766	-0.73867	 0.59742	 0.30830	 0.28493	-1.32606	-0.33829	 0.18422	-0.15633	-1.76752	-0.40063	 2.20386	 1.41005	-0.18916	 0.32199	-2.07178	-1.10147	 1.15520	 0.86876	-2.91051	-0.17926	 0.47883	 1.46186	 0.03912	-5.83006	 1.97915	 0.65098	 3.21218	-0.70897	 1.15746	-0.38532	-1.52348	-1.45420	 0.00945	 0.00841	-1.48531	 1.09283	
 17767	-0.63673	 0.45166	 0.30830	 0.28493	-1.33556	-0.34289	 0.16904	-0.15921	-1.77679	-0.39715	 2.19866	 1.41200	-0.20140	 0.32658	-2.07178	-1.10147	 1.15172	 0.85477	-2.91051	-0.17926	 0.47626	 1.45285	 0.03912	-5.83006	 1.97858	 0.64676	 3.20935	-0.70865	 1.15746	-0.38532	-1.52897	-1.45483	 0.00945	 0.00841	-1.49734	 1.08957	
 17768	-0.63673	 0.45166	 0.30830	 0.28493	-1.34892	-0.34196	 0.16150	-0.16481	-1.78604	-0.39368	 2.19345	 1.41395	-0.20404	 0.31745	-2.07178	-1.10147	 1.13447	 0.85088	-2.77691	-0.60924	 0.46423	 1.45722	-0.87662	-4.51515	 1.97123	 0.64730	 3.20651	-0.70833	 1.15746	-0.38532	-1.53321	-1.45723	 0.00945	 0.00841	-1.51057	 1.08389	
 17769	-0.42738	 0.26637	 0.30830	 0.28493	-1.35798	-0.34264	 0.14636	-0.16770	-1.78961	-0.39834	 2.19215	 1.41026	-0.21628	 0.32204	-2.08206	-1.08666	 1.12204	 0.84017	-2.77691	-0.60924	 0.46168	 1.44820	-0.87662	-4.51515	 1.97068	 0.64307	 3.20247	-0.70877	 1.19987	-0.40124	-1.53867	-1.45786	 0.00945	 0.00841	-1.52509	 1.07802	
 17770	-0.42738	 0.26637	 0.30830	 0.28493	-1.37175	-0.34562	 0.12351	-0.15962	-1.79886	-0.39486	 2.19607	 1.40462	-0.21891	 0.31292	-2.08206	-1.08666	 1.11376	 0.83304	-2.65081	-1.02664	 0.44709	 1.44358	-0.87662	-4.51515	 1.96070	 0.64238	 3.19677	-0.70931	 1.19987	-0.40124	-1.54684	-1.45752	 0.00945	 0.00841	-1.54098	 1.07412	
 17771	-0.53555	 0.30697	 0.30830	 0.28493	-1.39027	-0.35089	 0.10849	-0.17079	-1.79674	-0.40765	 2.18957	 1.40288	-0.22154	 0.30379	-2.09488	-1.08184	 1.09654	 0.82917	-2.86785	-0.94955	 0.44453	 1.43457	-0.87662	-4.51515	 1.94603	 0.64345	 3.19001	-0.71017	 1.15746	-0.38532	-1.55372	-1.45895	 0.00739	 0.00996	-1.55496	 1.07163	
 17772	-0.64331	 0.34743	 0.30362	 0.18714	-1.40918	-0.36008	 0.08589	-0.17927	-1.81878	-0.40537	 2.17916	 1.40679	-0.23639	 0.29926	-2.09743	-1.09184	 1.08347	 0.82886	-2.86785	-0.94955	 0.42998	 1.42995	-0.87662	-4.51515	 1.92665	 0.64630	 3.18228	-0.71092	 1.11511	-0.36942	-1.55793	-1.46136	 0.00810	 0.00895	-1.56782	 1.07162	
 17773	-0.65024	 0.24411	 0.39597	 0.05567	-1.43666	-0.36602	 0.05582	-0.19330	-1.82590	-0.41467	 2.17137	 1.40137	-0.25123	 0.29474	-2.11277	-1.09704	 1.06147	 0.83180	-3.21262	-0.45449	 0.41543	 1.42532	-2.54796	-2.85849	 1.90468	 0.64790	 3.17473	-0.71127	 1.11511	-0.36942	-1.56357	-1.46456	 0.00664	 0.00952	-1.58011	 1.07280	
 17774	-0.65024	 0.24411	 0.29868	 0.09008	-1.46452	-0.37587	 0.01828	-0.20465	-1.84791	-0.41240	 2.15448	 1.40354	-0.26606	 0.29022	-2.11530	-1.10702	 1.04430	 0.82793	-2.99559	-0.53157	 0.39147	 1.43405	-2.54796	-2.85849	 1.88743	 0.64773	 3.16765	-0.71106	 1.09591	-0.38684	-1.57045	-1.46599	 0.00730	 0.00857	-1.58982	 1.07446	
 17775	-0.65749	 0.14167	 0.29868	 0.09008	-1.50044	-0.37860	-0.02674	-0.21333	-1.86990	-0.41012	 2.13760	 1.40571	-0.29304	 0.29026	-2.13063	-1.11220	 1.02715	 0.82405	-2.99559	-0.53157	 0.36500	 1.43376	-2.54796	-2.85849	 1.86757	 0.64633	 3.16121	-0.70990	 1.03456	-0.38839	-1.58137	-1.46727	 0.00876	 0.00800	-1.60273	 1.07663	
 17776	-0.65749	 0.14167	 0.29347	-0.00626	-1.53672	-0.38525	-0.07163	-0.22199	-1.88265	-0.41132	 2.11946	 1.40418	-0.32955	 0.30397	-2.15619	-1.10260	 0.99701	 0.81986	-2.86785	-0.94955	 0.33857	 1.43348	-2.23584	-4.03239	 1.84566	 0.64791	 3.15567	-0.70884	 1.01548	-0.40577	-1.59229	-1.46855	 0.00876	 0.00800	-1.61688	 1.07643	
 17777	-0.55849	 0.00010	 0.29347	-0.00626	-1.58100	-0.38481	-0.11651	-0.22246	-1.89892	-0.41716	 2.09742	 1.40829	-0.34691	 0.29034	-2.15872	-1.11257	 0.96692	 0.81566	-2.53180	-1.43208	 0.31217	 1.43320	-1.56431	-4.27090	 1.82117	 0.64827	 3.14900	-0.70736	 0.99640	-0.42311	-1.60589	-1.46883	 0.01011	 0.00746	-1.63609	 1.07527	
 17778	-0.55849	 0.00010	 0.19682	 0.02792	-1.62136	-0.38985	-0.15367	-0.23381	-1.93004	-0.41145	 2.08059	 1.41044	-0.37378	 0.29037	-2.17400	-1.11775	 0.94166	 0.80469	-2.74717	-1.35558	 0.28581	 1.43290	-1.56431	-4.27090	 1.80139	 0.64686	 3.14147	-0.70652	 0.95443	-0.40736	-1.61555	-1.47187	 0.01011	 0.00746	-1.65894	 1.07119	
 17779	-0.66508	 0.04012	 0.10049	 0.06199	-1.66121	-0.39104	-0.18324	-0.24779	-1.94627	-0.41730	 2.06250	 1.40891	-0.40061	 0.29038	-2.17654	-1.12771	 0.91167	 0.80050	-2.74717	-1.35558	 0.25698	 1.42363	-1.56431	-4.27090	 1.78163	 0.64544	 3.13158	-0.70600	 0.95443	-0.40736	-1.62787	-1.47393	 0.00945	 0.00841	-1.68570	 1.06654	
 17780	-0.66508	 0.04012	 0.10049	 0.06199	-1.69291	-0.39929	-0.21277	-0.26176	-1.96814	-0.41505	 2.05350	 1.39982	-0.40578	 0.27224	-2.20202	-1.11814	 0.89058	 0.79307	-2.74717	-1.35558	 0.24006	 1.41005	-1.56431	-4.27090	 1.75929	 0.64279	 3.12060	-0.70699	 0.93544	-0.42467	-1.63892	-1.47777	 0.00810	 0.00895	-1.71218	 1.05956	
 17781	-0.87028	 0.22155	 0.00450	 0.09594	-1.71992	-0.40525	-0.24238	-0.26754	-1.99000	-0.41281	 2.03416	 1.39460	-0.42997	 0.28132	-2.23000	-1.11852	 0.87358	 0.78921	-3.08322	-0.87306	 0.22068	 1.38754	-1.56431	-4.27090	 1.74424	 0.63961	 3.10826	-0.70912	 0.93544	-0.42467	-1.64859	-1.48078	 0.00810	 0.00895	-1.73618	 1.05309	
 17782	-0.87028	 0.22155	 0.00450	 0.09594	-1.75111	-0.40963	-0.27191	-0.27333	-2.01182	-0.41058	 2.01485	 1.38939	-0.44465	 0.27679	-2.24773	-1.13364	 0.86068	 0.78888	-3.08322	-0.87306	 0.18262	 1.39157	-1.56431	-4.27090	 1.72455	 0.63820	 3.09618	-0.71161	 0.93544	-0.42467	-1.65945	-1.48206	 0.00664	 0.00952	-1.75783	 1.04933	
 17783	-0.97610	 0.26128	-0.08727	 0.22659	-1.77761	-0.41173	-0.29411	-0.27358	-2.01532	-0.41523	 1.99556	 1.38420	-0.44465	 0.27679	-2.27811	-1.14398	 0.85184	 0.79210	-3.21262	-0.45449	 0.15396	 1.38234	-1.56431	-4.27090	 1.71212	 0.63625	 3.08776	-0.71375	 0.89358	-0.40896	-1.66752	-1.48175	 0.00730	 0.00857	-1.76923	 1.04731	
 17784	-0.97610	 0.26128	 0.00450	 0.09594	-1.79106	-0.41471	-0.31642	-0.26569	-2.02098	-0.40714	 1.98146	 1.37705	-0.44465	 0.27679	-2.30596	-1.14438	 0.84707	 0.79886	-3.21262	-0.45449	 0.12786	 1.38202	-0.64857	-5.58581	 1.71212	 0.63625	 3.08470	-0.71430	 0.89358	-0.40896	-1.67016	-1.48079	 0.00730	 0.00857	-1.77255	 1.05005	
 17785	-0.97610	 0.26128	 0.10049	 0.06199	-1.78183	-0.41015	-0.30168	-0.26280	-2.00481	-0.40128	 1.97893	 1.36972	-0.42997	 0.28132	-2.32109	-1.14955	 0.85519	 0.80596	-3.21262	-0.45449	 0.11605	 1.38632	-0.64857	-5.58581	 1.72715	 0.63942	 3.08945	-0.71248	 0.91251	-0.39162	-1.66597	-1.47840	 0.00665	 0.00808	-1.76713	 1.05659	
 17786	-0.97610	 0.26128	 0.10049	 0.06199	-1.73300	-0.40436	-0.25756	-0.24592	-1.96325	-0.39301	 1.98534	 1.37145	-0.41272	 0.29493	-2.32109	-1.14955	 0.88031	 0.81694	-3.21262	-0.45449	 0.13034	 1.39094	-0.64857	-5.58581	 1.76189	 0.64402	 3.10121	-0.70893	 0.95443	-0.40736	-1.64967	-1.47646	 0.00665	 0.00808	-1.75405	 1.06229	
 17787	-0.87028	 0.22155	 0.19682	 0.02792	-1.64806	-0.39194	-0.17614	-0.22586	-1.91240	-0.38819	 2.01365	 1.36911	-0.36860	 0.30855	-2.30596	-1.14438	 0.91842	 0.82828	-3.21262	-0.45449	 0.18262	 1.39157	-0.64857	-5.58581	 1.81128	 0.64756	 3.11716	-0.70455	 0.97343	-0.38999	-1.62523	-1.47489	 0.00665	 0.00808	-1.74021	 1.06700	
 17788	-0.75722	 0.28427	 0.20170	 0.12438	-1.54866	-0.37266	-0.07186	-0.20555	-1.85786	-0.37871	 2.03940	 1.37603	-0.32696	 0.31308	-2.27562	-1.13405	 0.96141	 0.83282	-3.21262	-0.45449	 0.23756	 1.40110	-0.87662	-4.51515	 1.85612	 0.65284	 3.13271	-0.70024	 0.99247	-0.37259	-1.60215	-1.47413	 0.00595	 0.00910	-1.73133	 1.06858	
 17789	-0.75069	 0.38774	 0.30362	 0.18714	-1.44866	-0.35339	 0.02553	-0.18258	-1.80668	-0.37392	 2.07037	 1.38101	-0.27563	 0.30390	-2.23502	-1.13841	 1.00041	 0.83379	-2.86785	-0.94955	 0.31650	 1.40196	-1.86027	-3.10274	 1.89114	 0.65741	 3.14567	-0.69711	 1.03456	-0.38839	-1.58433	-1.47144	 0.00730	 0.00857	-1.72602	 1.06501	
 17790	-0.64331	 0.34743	 0.30830	 0.28493	-1.36659	-0.33941	 0.10839	-0.16251	-1.76250	-0.37849	 2.10009	 1.38233	-0.23639	 0.29926	-2.20706	-1.13802	 1.02646	 0.83442	-2.86785	-0.94955	 0.35990	 1.41582	-2.21799	-1.82751	 1.90894	 0.66181	 3.15459	-0.69561	 1.07674	-0.40422	-1.57078	-1.47113	 0.00810	 0.00895	-1.72952	 1.05988	
 17791	-0.63673	 0.45166	 0.40626	 0.25029	-1.31136	-0.32747	 0.16132	-0.14823	-1.73680	-0.37611	 2.12470	 1.38556	-0.20932	 0.29920	-2.19181	-1.13286	 1.04362	 0.83830	-2.86785	-0.94955	 0.39147	 1.43405	-2.21799	-1.82751	 1.91418	 0.66428	 3.16023	-0.69624	 1.11896	-0.42007	-1.56778	-1.46696	 0.00810	 0.00895	-1.73370	 1.05359	
 17792	-0.63050	 0.55681	 0.41099	 0.34871	-1.28367	-0.32151	 0.19167	-0.14243	-1.71466	-0.37840	 2.13246	 1.39097	-0.20404	 0.31745	-2.18160	-1.14759	 1.05666	 0.83861	-2.99559	-0.53157	 0.41798	 1.43431	-1.86027	-3.10274	 1.90948	 0.66605	 3.16287	-0.69815	 1.16124	-0.43595	-1.56232	-1.46633	 0.00945	 0.00841	-1.73530	 1.04766	
 17793	-0.63050	 0.55681	 0.41099	 0.34871	-1.27847	-0.31527	 0.20697	-0.14784	-1.70177	-0.37722	 2.13893	 1.39271	-0.18916	 0.32199	-2.18160	-1.14759	 1.06078	 0.84219	-2.99559	-0.53157	 0.40855	 1.44767	-1.86027	-3.10274	 1.90894	 0.66181	 3.16351	-0.70029	 1.13820	-0.40272	-1.56075	-1.46296	 0.00945	 0.00841	-1.73530	 1.04766	
 17794	-0.63050	 0.55681	 0.41099	 0.34871	-1.28279	-0.31365	 0.20697	-0.14784	-1.68888	-0.37604	 2.13893	 1.39271	-0.17425	 0.32652	-2.19686	-1.15274	 1.06972	 0.83893	-2.99559	-0.53157	 0.40855	 1.44767	-0.87662	-4.51515	 1.90161	 0.66235	 3.16277	-0.70168	 1.13820	-0.40272	-1.55654	-1.46055	 0.00945	 0.00841	-1.73228	 1.05155	
 17795	-0.63050	 0.55681	 0.50455	 0.21552	-1.28799	-0.31988	 0.19949	-0.16173	-1.68529	-0.37137	 2.13374	 1.39466	-0.14973	 0.31731	-2.21210	-1.15789	 1.06972	 0.83893	-2.99559	-0.53157	 0.39657	 1.45203	-1.56431	-4.27090	 1.89638	 0.65987	 3.16119	-0.70253	 1.13820	-0.40272	-1.55497	-1.45718	 0.00810	 0.00895	-1.73010	 1.05868	
 17796	-0.63050	 0.55681	 0.50455	 0.21552	-1.30571	-0.31733	 0.17667	-0.16191	-1.67599	-0.37486	 2.12727	 1.39292	-0.15935	 0.33107	-2.22483	-1.15311	 1.05666	 0.83861	-3.21262	-0.45449	 0.38459	 1.45639	-1.56431	-4.27090	 1.88906	 0.66041	 3.15894	-0.70242	 1.13820	-0.40272	-1.55090	-1.45735	 0.00810	 0.00895	-1.73173	 1.06509	
 17797	-0.52857	 0.41105	 0.40626	 0.25029	-1.31999	-0.32423	 0.15398	-0.17040	-1.68529	-0.37137	 2.12079	 1.39119	-0.15935	 0.33107	-2.24004	-1.15827	 1.04843	 0.83149	-2.86785	-0.94955	 0.38205	 1.44740	-1.56431	-4.27090	 1.87912	 0.65971	 3.15649	-0.70200	 1.09591	-0.38684	-1.54823	-1.45832	 0.00810	 0.00895	-1.73976	 1.07042	
 17798	-0.63673	 0.45166	 0.40126	 0.15261	-1.33811	-0.32561	 0.13131	-0.17886	-1.69101	-0.36319	 2.11042	 1.39509	-0.17162	 0.33568	-2.25273	-1.15350	 1.03127	 0.82761	-2.86785	-0.94955	 0.35812	 1.45611	-2.54796	-2.85849	 1.86449	 0.66077	 3.15379	-0.70125	 1.11896	-0.42007	-1.54980	-1.46169	 0.00810	 0.00895	-1.75271	 1.07266	
 17799	-0.64331	 0.34743	 0.30362	 0.18714	-1.35623	-0.32697	 0.10859	-0.17906	-1.70031	-0.35970	 2.10004	 1.39898	-0.18387	 0.34028	-2.24255	-1.16818	 1.00522	 0.82698	-2.86785	-0.94955	 0.35558	 1.44711	-1.86027	-3.10274	 1.85459	 0.66006	 3.15169	-0.70073	 1.07674	-0.40422	-1.55280	-1.46585	 0.00810	 0.00895	-1.76588	 1.06911	
 17800	-0.54287	 0.20380	 0.29868	 0.09008	-1.36572	-0.33157	 0.10116	-0.19290	-1.71319	-0.36089	 2.10394	 1.39335	-0.19876	 0.33572	-2.22986	-1.17295	 0.98811	 0.82311	-2.86785	-0.94955	 0.35306	 1.43811	-1.86027	-3.10274	 1.84728	 0.66059	 3.14887	-0.70043	 1.09975	-0.43741	-1.55576	-1.47003	 0.00810	 0.00895	-1.78282	 1.06277	
 17801	-0.65024	 0.24411	 0.29868	 0.09008	-1.37089	-0.33779	 0.09366	-0.19847	-1.72037	-0.37024	 2.10913	 1.39140	-0.20140	 0.32658	-2.21717	-1.17771	 0.97512	 0.82278	-2.86785	-0.94955	 0.34110	 1.44246	-1.86027	-3.10274	 1.83998	 0.66111	 3.14675	-0.70108	 1.05758	-0.42158	-1.56140	-1.47323	 0.00876	 0.00800	-1.79840	 1.05446	
 17802	-0.65024	 0.24411	 0.48774	-0.07497	-1.37562	-0.34009	 0.08608	-0.19578	-1.73680	-0.37611	 2.10913	 1.39140	-0.21364	 0.33118	-2.21464	-1.16780	 0.96692	 0.81566	-3.08322	-0.87306	 0.35050	 1.42914	-1.86027	-3.10274	 1.84206	 0.65812	 3.14388	-0.70194	 1.05758	-0.42158	-1.56686	-1.47387	 0.00876	 0.00800	-1.81406	 1.04830	
 17803	-0.65024	 0.24411	 0.48774	-0.07497	-1.38467	-0.34078	 0.07849	-0.19310	-1.74967	-0.37729	 2.10394	 1.39335	-0.20404	 0.31745	-2.21464	-1.16780	 0.95803	 0.81890	-3.08322	-0.87306	 0.33857	 1.43348	-1.86027	-3.10274	 1.83476	 0.65864	 3.14089	-0.70322	 1.05758	-0.42158	-1.57092	-1.47370	 0.00876	 0.00800	-1.82861	 1.04461	
 17804	-0.65024	 0.24411	 0.39597	 0.05567	-1.39413	-0.34537	 0.07090	-0.19042	-1.76250	-0.37849	 2.09229	 1.39357	-0.21628	 0.32204	-2.21717	-1.17771	 0.95393	 0.81535	-3.21262	-0.45449	 0.34797	 1.42016	-1.86027	-3.10274	 1.82747	 0.65917	 3.13719	-0.70472	 1.05758	-0.42158	-1.57217	-1.47193	 0.00810	 0.00895	-1.83744	 1.04305	
 17805	-0.54287	 0.20380	 0.39597	 0.05567	-1.41218	-0.34674	 0.04825	-0.19062	-1.78104	-0.37153	 2.08327	 1.38449	-0.22850	 0.32663	-2.24507	-1.17809	 0.94505	 0.81859	-3.21262	-0.45449	 0.33350	 1.41554	-1.86027	-3.10274	 1.81756	 0.65846	 3.13252	-0.70610	 1.05758	-0.42158	-1.57342	-1.47016	 0.00945	 0.00841	-1.84462	 1.04514	
 17806	-0.54287	 0.20380	 0.30362	 0.18714	-1.44308	-0.34328	 0.02574	-0.19908	-1.78461	-0.37620	 2.06520	 1.38295	-0.24072	 0.33122	-2.26028	-1.18322	 0.93208	 0.81826	-3.21262	-0.45449	 0.31903	 1.41092	-1.86027	-3.10274	 1.80039	 0.65828	 3.12753	-0.70761	 1.01548	-0.40577	-1.57466	-1.46840	 0.00875	 0.00943	-1.85255	 1.05043	
 17807	-0.54287	 0.20380	 0.21066	 0.31947	-1.47050	-0.34926	 0.00336	-0.21577	-1.80313	-0.36925	 2.04712	 1.38143	-0.25295	 0.33581	-2.28813	-1.18359	 0.91505	 0.81438	-3.21262	-0.45449	 0.30459	 1.40629	-1.86027	-3.10274	 1.78322	 0.65809	 3.12266	-0.70869	 1.01548	-0.40577	-1.57591	-1.46663	 0.00809	 0.01038	-1.86129	 1.05678	
 17808	-0.54287	 0.20380	 0.11337	 0.35388	-1.50258	-0.35753	-0.03407	-0.22709	-1.81024	-0.37859	 2.02907	 1.37991	-0.26515	 0.34039	-2.31344	-1.17409	 0.88917	 0.81372	-2.86785	-0.94955	 0.28762	 1.39273	-1.86027	-3.10274	 1.76815	 0.65491	 3.11677	-0.70892	 1.03845	-0.43890	-1.57998	-1.46646	 0.00809	 0.01038	-1.87364	 1.06233	
 17809	-0.54287	 0.20380	 0.11337	 0.35388	-1.54313	-0.36258	-0.07139	-0.23842	-1.82660	-0.38445	 2.00716	 1.38398	-0.27998	 0.33584	-2.32858	-1.17923	 0.86333	 0.81306	-3.08322	-0.87306	 0.24943	 1.39678	-2.54796	-2.85849	 1.75309	 0.65174	 3.11043	-0.70850	 0.99640	-0.42311	-1.58544	-1.46710	 0.00954	 0.00981	-1.88907	 1.06406	
 17810	-0.65024	 0.24411	 0.01640	 0.38818	-1.58357	-0.36766	-0.10864	-0.24974	-1.85217	-0.38684	 1.99430	 1.38052	-0.30957	 0.32673	-2.34121	-1.17449	 0.83345	 0.80885	-3.08322	-0.87306	 0.23253	 1.38323	-1.56431	-4.27090	 1.73337	 0.65031	 3.10327	-0.70754	 0.99640	-0.42311	-1.59371	-1.46934	 0.00954	 0.00981	-1.91018	 1.06370	
 17811	-0.75722	 0.28427	 0.10935	 0.25585	-1.61969	-0.37432	-0.14580	-0.26104	-1.88125	-0.39389	 1.97757	 1.38266	-0.33911	 0.31764	-2.35631	-1.17964	 0.81246	 0.80141	-3.08322	-0.87306	 0.20630	 1.38295	-0.64857	-5.58581	 1.71835	 0.64714	 3.09518	-0.70650	 0.95443	-0.40736	-1.60197	-1.47157	 0.00954	 0.00981	-1.93493	 1.06042	
 17812	-0.96425	 0.46791	 0.01269	 0.29004	-1.65996	-0.37940	-0.18287	-0.27234	-1.90673	-0.39630	 1.96475	 1.37918	-0.38072	 0.31310	-2.37142	-1.18478	 0.77792	 0.80395	-3.29699	-0.79713	 0.18944	 1.36943	-0.64857	-5.58581	 1.69867	 0.64570	 3.08552	-0.70630	 0.95443	-0.40736	-1.61415	-1.47106	 0.00954	 0.00981	-1.95501	 1.05462	
 17813	-1.07045	 0.50778	 0.10505	 0.15857	-1.69591	-0.38607	-0.22746	-0.27281	-1.94137	-0.39525	 1.95066	 1.37204	-0.41015	 0.30402	-2.38649	-1.18992	 0.75700	 0.79651	-3.08322	-0.87306	 0.15147	 1.37343	-0.64857	-5.58581	 1.67439	 0.64601	 3.07586	-0.70730	 0.97736	-0.44041	-1.62225	-1.47074	 0.00954	 0.00981	-1.97133	 1.04951	
 17814	-0.97001	 0.36416	 0.10049	 0.06199	-1.73178	-0.39275	-0.25689	-0.28675	-1.97029	-0.40232	 1.93659	 1.36492	-0.43693	 0.30401	-2.40158	-1.19504	 0.73610	 0.78909	-3.08322	-0.87306	 0.13469	 1.35992	-1.56431	-4.27090	 1.65477	 0.64457	 3.06664	-0.70891	 0.93544	-0.42467	-1.62910	-1.47218	 0.01020	 0.00886	-1.98202	 1.04647	
 17815	-0.97001	 0.36416	 0.00450	 0.09594	-1.76295	-0.39714	-0.28640	-0.29252	-1.99000	-0.41281	 1.92253	 1.35780	-0.46369	 0.30402	-2.41663	-1.20018	 0.71926	 0.78521	-3.29699	-0.79713	 0.10861	 1.35961	-1.86027	-3.10274	 1.63774	 0.64437	 3.05959	-0.70990	 0.93544	-0.42467	-1.63330	-1.47458	 0.01020	 0.00886	-1.98508	 1.04476	
 17816	-0.97610	 0.26128	 0.00450	 0.09594	-1.78102	-0.40242	-0.30856	-0.29278	-2.00616	-0.41866	 1.90974	 1.35434	-0.47577	 0.30855	-2.43167	-1.20531	 0.69769	 0.78805	-3.29699	-0.79713	 0.09433	 1.35502	-2.54796	-2.85849	 1.63517	 0.64313	 3.05772	-0.70969	 0.89358	-0.40896	-1.63488	-1.47792	 0.01020	 0.00886	-1.98521	 1.04699	
 17817	-0.87710	 0.11971	-0.09119	 0.12979	-1.78102	-0.40242	-0.30113	-0.29541	-2.00616	-0.41866	 1.90848	 1.35068	-0.46369	 0.30402	-2.43412	-1.21516	 0.70647	 0.78486	-2.96095	-1.27966	 0.09186	 1.34614	-3.61037	-1.33297	 1.64755	 0.64508	 3.06316	-0.70764	 0.89358	-0.40896	-1.62832	-1.48163	 0.00875	 0.00943	-1.98024	 1.05011	
 17818	-0.87710	 0.11971	 0.00450	 0.09594	-1.74526	-0.39574	-0.25689	-0.28675	-1.97732	-0.41161	 1.91613	 1.35607	-0.44902	 0.30855	-2.42157	-1.21987	 0.71854	 0.79549	-2.96095	-1.27966	 0.09433	 1.35502	-3.61037	-1.33297	 1.67956	 0.64847	 3.07606	-0.70452	 0.93544	-0.42467	-1.61089	-1.48405	 0.00875	 0.00943	-1.97031	 1.05414	
 17819	-0.87028	 0.22155	 0.10049	 0.06199	-1.67773	-0.38080	-0.18287	-0.27234	-1.93218	-0.39870	 1.93532	 1.36126	-0.39802	 0.29947	-2.40652	-1.21475	 0.75627	 0.80681	-2.96095	-1.27966	 0.12537	 1.37312	-3.61037	-1.33297	 1.72406	 0.65381	 3.09372	-0.70076	 0.95443	-0.40736	-1.58640	-1.48247	 0.00875	 0.00943	-1.95904	 1.05838	
 17820	-0.97001	 0.36416	 0.19682	 0.02792	-1.58274	-0.35987	-0.08622	-0.24951	-1.87417	-0.38457	 1.97124	 1.36432	-0.34429	 0.29942	-2.36626	-1.21909	 0.80696	 0.81849	-2.96095	-1.27966	 0.16828	 1.38696	-2.54796	-2.85849	 1.76660	 0.66212	 3.11197	-0.69720	 1.01548	-0.40577	-1.55765	-1.47853	 0.00875	 0.00943	-1.94388	 1.06109	
 17821	-0.86381	 0.32429	 0.29868	 0.09008	-1.48292	-0.34053	 0.01091	-0.21844	-1.80668	-0.37392	 1.99945	 1.37859	-0.30000	 0.31305	-2.34868	-1.20412	 0.85376	 0.82661	-3.08322	-0.87306	 0.22568	 1.40543	-2.54796	-2.85849	 1.80873	 0.66621	 3.12807	-0.69428	 1.07674	-0.40422	-1.53012	-1.47280	 0.00875	 0.00943	-1.92663	 1.06080	
 17822	-0.75069	 0.38774	 0.39597	 0.05567	-1.39627	-0.32419	 0.09366	-0.19847	-1.75751	-0.35630	 2.02647	 1.38919	-0.24597	 0.31296	-2.30830	-1.20847	 0.89180	 0.83797	-2.86785	-0.94955	 0.28077	 1.41496	-2.54796	-2.85849	 1.83375	 0.67010	 3.14078	-0.69201	 1.09591	-0.38684	-1.50801	-1.46771	 0.01020	 0.00886	-1.91134	 1.06129	
 17823	-0.64331	 0.34743	 0.40126	 0.15261	-1.33681	-0.31383	 0.14645	-0.17597	-1.72105	-0.33985	 2.05223	 1.39614	-0.22588	 0.33577	-2.30329	-1.18873	 0.92179	 0.84219	-2.86785	-0.94955	 0.33350	 1.41554	-2.54796	-2.85849	 1.84888	 0.67327	 3.15121	-0.69082	 1.13820	-0.40272	-1.49137	-1.46325	 0.01020	 0.00886	-1.89604	 1.06178	
 17824	-0.64331	 0.34743	 0.40626	 0.25029	-1.30008	-0.30716	 0.17676	-0.17020	-1.68810	-0.32807	 2.07157	 1.40135	-0.19876	 0.33572	-2.30078	-1.17884	 0.93884	 0.84609	-3.21262	-0.45449	 0.35990	 1.41582	-1.56431	-4.27090	 1.85618	 0.67275	 3.15911	-0.69036	 1.15746	-0.38532	-1.47488	-1.46136	 0.01090	 0.00927	-1.88796	 1.06654	
 17825	-0.53555	 0.30697	 0.40626	 0.25029	-1.27758	-0.30742	 0.19202	-0.17560	-1.65867	-0.32098	 2.08059	 1.41044	-0.19349	 0.35403	-2.30078	-1.17884	 0.95662	 0.83962	-3.21262	-0.45449	 0.37441	 1.42043	-0.87662	-4.51515	 1.85411	 0.67574	 3.16394	-0.69046	 1.15746	-0.38532	-1.46086	-1.45595	 0.01090	 0.00927	-1.88002	 1.07352	
 17826	-0.52857	 0.41105	 0.31270	 0.38348	-1.27326	-0.30904	 0.19210	-0.18388	-1.63279	-0.31859	 2.09871	 1.41197	-0.18123	 0.34943	-2.30078	-1.17884	 0.96072	 0.84318	-3.21262	-0.45449	 0.38637	 1.41608	-0.87662	-4.51515	 1.84681	 0.67627	 3.16510	-0.69088	 1.19987	-0.40124	-1.44543	-1.44969	 0.01090	 0.00927	-1.87420	 1.08355	
 17827	-0.52857	 0.41105	 0.31270	 0.38348	-1.27802	-0.31135	 0.17692	-0.18675	-1.61049	-0.32090	 2.11164	 1.41546	-0.16896	 0.34482	-2.30078	-1.17884	 0.95662	 0.83962	-3.21262	-0.45449	 0.37697	 1.42941	-0.87662	-4.51515	 1.83690	 0.67556	 3.16320	-0.69185	 1.15746	-0.38532	-1.42998	-1.44346	 0.00954	 0.00981	-1.86891	 1.09231	
 17828	-0.53555	 0.30697	 0.31270	 0.38348	-1.28799	-0.31988	 0.16177	-0.18963	-1.61624	-0.31268	 2.12458	 1.41894	-0.15935	 0.33107	-2.30078	-1.17884	 0.95252	 0.83606	-3.21262	-0.45449	 0.36500	 1.43376	-0.17193	-4.76544	 1.82645	 0.67062	 3.15868	-0.69283	 1.15746	-0.38532	-1.41737	-1.43881	 0.00954	 0.00981	-1.86736	 1.09821	
 17829	-0.53555	 0.30697	 0.40626	 0.25029	-1.31092	-0.32355	 0.13909	-0.19809	-1.61049	-0.32090	 2.13754	 1.42241	-0.17425	 0.32652	-2.31344	-1.17409	 0.94435	 0.82894	-2.86785	-0.94955	 0.35306	 1.43811	-0.87662	-4.51515	 1.80926	 0.67043	 3.15285	-0.69380	 1.09591	-0.38684	-1.41024	-1.43480	 0.00954	 0.00981	-1.87250	 1.09949	
 17830	-0.64331	 0.34743	 0.30830	 0.28493	-1.33424	-0.33114	 0.11645	-0.20653	-1.61411	-0.32560	 2.15572	 1.42394	-0.18916	 0.32199	-2.30078	-1.17884	 0.93139	 0.82860	-2.86785	-0.94955	 0.33857	 1.43348	-1.86027	-3.10274	 1.79210	 0.67024	 3.14648	-0.69456	 1.09591	-0.38684	-1.40615	-1.43498	 0.00954	 0.00981	-1.88310	 1.09430	
 17831	-0.65024	 0.24411	 0.30830	 0.28493	-1.35710	-0.33481	 0.09385	-0.21496	-1.62705	-0.32679	 2.16350	 1.42937	-0.20669	 0.30833	-2.30078	-1.17884	 0.92321	 0.82149	-2.86785	-0.94955	 0.32410	 1.42885	-1.86027	-3.10274	 1.77753	 0.67128	 3.14029	-0.69563	 1.07674	-0.40422	-1.40347	-1.43596	 0.01020	 0.00886	-1.89668	 1.08515	
 17832	-0.75069	 0.38774	 0.40126	 0.15261	-1.37089	-0.33779	 0.07117	-0.21515	-1.63640	-0.32329	 2.16736	 1.44046	-0.22154	 0.30379	-2.29828	-1.16895	 0.91434	 0.82472	-3.21262	-0.45449	 0.30964	 1.42422	-1.86027	-3.10274	 1.76765	 0.67057	 3.13422	-0.69747	 1.07674	-0.40422	-1.39955	-1.43870	 0.01020	 0.00886	-1.90950	 1.07501	
 17833	-0.75069	 0.38774	 0.40126	 0.15261	-1.38423	-0.33686	 0.05612	-0.21803	-1.64001	-0.32798	 2.17514	 1.44591	-0.24859	 0.30384	-2.29328	-1.14914	 0.91026	 0.82116	-3.21262	-0.45449	 0.30711	 1.41525	-1.86027	-3.10274	 1.75831	 0.67408	 3.12788	-0.70015	 1.05369	-0.37099	-1.39295	-1.44243	 0.00875	 0.00943	-1.92122	 1.06735	
 17834	-0.75069	 0.38774	 0.30362	 0.18714	-1.39326	-0.33755	 0.04098	-0.21268	-1.65867	-0.32098	 2.18292	 1.45136	-0.27299	 0.31300	-2.27811	-1.14398	 0.91026	 0.82116	-3.21262	-0.45449	 0.30459	 1.40629	-1.86027	-3.10274	 1.75572	 0.67284	 3.12237	-0.70336	 1.05369	-0.37099	-1.39024	-1.44341	 0.01020	 0.00886	-1.92872	 1.06379	
 17835	-0.54287	 0.20380	 0.30362	 0.18714	-1.39843	-0.34376	 0.03351	-0.21824	-1.66587	-0.33037	 2.18944	 1.45309	-0.27563	 0.30390	-2.27312	-1.12411	 0.90139	 0.82439	-3.21262	-0.45449	 0.30205	 1.39735	-1.86027	-3.10274	 1.75052	 0.67037	 3.11697	-0.70614	 1.09591	-0.38684	-1.38757	-1.44439	 0.00954	 0.00981	-1.93235	 1.06089	
 17836	-0.54287	 0.20380	 0.21066	 0.31947	-1.41647	-0.34513	 0.01848	-0.22112	-1.67878	-0.33157	 2.18551	 1.45876	-0.27824	 0.29479	-2.26042	-1.12887	 0.88845	 0.82406	-3.42799	-0.37800	 0.28762	 1.39273	-2.54796	-2.85849	 1.74066	 0.66965	 3.11300	-0.70849	 1.09591	-0.38684	-1.39170	-1.44420	 0.00954	 0.00981	-1.93927	 1.05853	
 17837	-0.65024	 0.24411	 0.30362	 0.18714	-1.43493	-0.35041	 0.00356	-0.23222	-1.69527	-0.33746	 2.18029	 1.46072	-0.29304	 0.29026	-2.27063	-1.11416	 0.87146	 0.82017	-3.08322	-0.87306	 0.28509	 1.38380	-2.54796	-2.85849	 1.73288	 0.66595	 3.10967	-0.70988	 1.11896	-0.42007	-1.40130	-1.44466	 0.00884	 0.01082	-1.94735	 1.05377	
 17838	-0.75722	 0.28427	 0.20632	 0.22155	-1.46194	-0.35247	-0.01887	-0.24065	-1.71747	-0.33517	 2.17900	 1.45701	-0.30783	 0.28573	-2.27063	-1.11416	 0.85041	 0.81273	-3.08322	-0.87306	 0.27067	 1.37919	-2.54796	-2.85849	 1.71785	 0.66276	 3.10520	-0.70967	 1.09975	-0.43741	-1.41252	-1.44850	 0.00954	 0.00981	-1.96225	 1.04662	
 17839	-0.75722	 0.28427	 0.20170	 0.12438	-1.48932	-0.35844	-0.04871	-0.25461	-1.73392	-0.34105	 2.17250	 1.45527	-0.32521	 0.27213	-2.25793	-1.11893	 0.82534	 0.80175	-2.74717	-1.35558	 0.24440	 1.37891	-2.54796	-2.85849	 1.70024	 0.65834	 3.09921	-0.70915	 1.05758	-0.42158	-1.42922	-1.45297	 0.00954	 0.00981	-1.98221	 1.03861	
 17840	-0.86381	 0.32429	 0.19682	 0.02792	-1.52949	-0.35959	-0.08600	-0.26590	-1.75393	-0.35162	 2.16601	 1.45352	-0.35210	 0.27217	-2.25544	-1.10898	 0.80032	 0.79077	-2.74717	-1.35558	 0.21815	 1.37863	-2.54796	-2.85849	 1.68060	 0.65689	 3.09135	-0.70843	 1.05758	-0.42158	-1.44877	-1.45903	 0.01020	 0.00886	-2.00327	 1.02811	
 17841	-0.86381	 0.32429	 0.19682	 0.02792	-1.56997	-0.36466	-0.12321	-0.27717	-1.80171	-0.35174	 2.16601	 1.45352	-0.39367	 0.26769	-2.25044	-1.08906	 0.76652	 0.78302	-2.74717	-1.35558	 0.20129	 1.36511	-2.54796	-2.85849	 1.66096	 0.65545	 3.08266	-0.70835	 1.01548	-0.40577	-1.46970	-1.46589	 0.01020	 0.00886	-2.02243	 1.01692	
 17842	-0.87028	 0.22155	 0.19167	-0.06781	-1.61502	-0.37204	-0.17539	-0.27498	-1.84368	-0.36003	 2.16079	 1.45548	-0.42563	 0.24960	-2.24546	-1.06909	 0.73682	 0.77881	-3.08322	-0.87306	 0.18444	 1.35161	-1.56431	-4.27090	 1.63929	 0.65698	 3.07338	-0.70805	 0.97343	-0.38999	-1.49328	-1.47176	 0.01020	 0.00886	-2.04030	 1.00591	
 17843	-0.87028	 0.22155	 0.09568	-0.03386	-1.65189	-0.38646	-0.21986	-0.28362	-1.87985	-0.37645	 2.15559	 1.45743	-0.46702	 0.24512	-2.23022	-1.06388	 0.70719	 0.77460	-3.08322	-0.87306	 0.17942	 1.33383	-1.56431	-4.27090	 1.62021	 0.65974	 3.06503	-0.70785	 0.93146	-0.37423	-1.51415	-1.47861	 0.00875	 0.00943	-2.05694	 0.99516	
 17844	-0.97610	 0.26128	-0.09119	 0.12979	-1.69249	-0.39542	-0.25676	-0.29490	-1.92160	-0.38473	 2.14518	 1.46134	-0.50829	 0.24062	-2.23022	-1.06388	 0.69110	 0.76047	-3.08322	-0.87306	 0.16509	 1.32926	-1.56431	-4.27090	 1.60372	 0.66373	 3.05685	-0.70724	 0.87065	-0.37590	-1.52970	-1.48739	 0.00875	 0.00943	-2.07290	 0.98556	
 17845	-1.08153	 0.30086	-0.09119	 0.12979	-1.73259	-0.40050	-0.29357	-0.30617	-1.95408	-0.39645	 2.12828	 1.46350	-0.53746	 0.23161	-2.24048	-1.04909	 0.67430	 0.75660	-3.42799	-0.37800	 0.15079	 1.32469	-1.56431	-4.27090	 1.59189	 0.66598	 3.04912	-0.70609	 0.85179	-0.39327	-1.54769	-1.49264	 0.00809	 0.01038	-2.08772	 0.97626	
 17846	-1.08153	 0.30086	-0.18657	 0.16352	-1.76797	-0.40329	-0.32287	-0.32007	-1.98297	-0.40352	 2.10886	 1.45824	-0.56403	 0.23161	-2.25571	-1.05431	 0.66227	 0.74602	-3.08322	-0.87306	 0.12471	 1.32440	-2.23584	-4.03239	 1.58262	 0.66946	 3.04164	-0.70525	 0.83293	-0.41061	-1.55896	-1.49901	 0.00809	 0.01038	-2.09938	 0.96863	
 17847	-1.18658	 0.34029	-0.09539	 0.03372	-1.79486	-0.40927	-0.35225	-0.32582	-2.00831	-0.40594	 2.08818	 1.44929	-0.57858	 0.22711	-2.28362	-1.05476	 0.64952	 0.74568	-3.08322	-0.87306	 0.09867	 1.32411	-2.23584	-4.03239	 1.57799	 0.67120	 3.03697	-0.70473	 0.85579	-0.44357	-1.56740	-1.50381	 0.00875	 0.00943	-2.10417	 0.96331	
 17848	-1.08758	 0.19873	-0.09539	 0.03372	-1.81250	-0.41068	-0.37433	-0.32609	-2.01747	-0.40250	 2.06878	 1.44405	-0.57858	 0.22711	-2.31397	-1.06521	 0.64078	 0.74886	-3.29699	-0.79713	 0.07265	 1.32381	-1.32010	-5.34730	 1.58313	 0.67366	 3.03665	-0.70367	 0.83293	-0.41061	-1.57147	-1.50364	 0.00875	 0.00943	-2.09969	 0.96298	
 17849	-1.08758	 0.19873	-0.09539	 0.03372	-1.80789	-0.40839	-0.35952	-0.33132	-2.00481	-0.40128	 2.06496	 1.43298	-0.56403	 0.23161	-2.32911	-1.07043	 0.65353	 0.74920	-3.29699	-0.79713	 0.07017	 1.31496	-1.32010	-5.34730	 1.59597	 0.67985	 3.04468	-0.70162	 0.85179	-0.39327	-1.56069	-1.50493	 0.00875	 0.00943	-2.08666	 0.96865	
 17850	-1.08153	 0.30086	-0.00002	-0.00001	-1.76797	-0.40329	-0.31544	-0.32269	-1.98161	-0.38612	 2.06887	 1.42734	-0.53491	 0.24063	-2.34181	-1.06566	 0.66956	 0.76332	-3.29699	-0.79713	 0.07265	 1.32381	-1.56431	-4.27090	 1.63307	 0.68576	 3.06121	-0.69817	 0.91251	-0.39162	-1.54147	-1.50146	 0.00809	 0.01038	-2.06418	 0.97710	
 17851	-0.97610	 0.26128	 0.00450	 0.09594	-1.69591	-0.38607	-0.24187	-0.30017	-1.92728	-0.37661	 2.08570	 1.42520	-0.49369	 0.24513	-2.31644	-1.07519	 0.71194	 0.76787	-3.29699	-0.79713	 0.10363	 1.34186	-1.56431	-4.27090	 1.67800	 0.69539	 3.08312	-0.69311	 0.97343	-0.38999	-1.50859	-1.49770	 0.00809	 0.01038	-2.03651	 0.98421	
 17852	-0.97001	 0.36416	 0.19682	 0.02792	-1.59251	-0.36835	-0.13819	-0.27187	-1.86923	-0.36245	 2.10382	 1.42673	-0.44979	 0.25867	-2.30128	-1.06997	 0.75368	 0.78269	-3.64177	-0.30207	 0.15831	 1.35132	-2.54796	-2.85849	 1.72771	 0.70326	 3.10592	-0.68740	 1.01152	-0.35516	-1.47283	-1.49234	 0.00809	 0.01038	-2.00946	 0.99018	
 17853	-0.86381	 0.32429	 0.20170	 0.12438	-1.48377	-0.34834	-0.03375	-0.25174	-1.80171	-0.35174	 2.12715	 1.42631	-0.39627	 0.25863	-2.27338	-1.06953	 0.80032	 0.79077	-3.42799	-0.37800	 0.21815	 1.37863	-1.86027	-3.10274	 1.77706	 0.70688	 3.12622	-0.68244	 1.07282	-0.35355	-1.43961	-1.48605	 0.00884	 0.01082	-1.98282	 0.99265	
 17854	-0.85766	 0.42790	 0.20632	 0.22155	-1.38423	-0.33686	 0.05630	-0.23450	-1.74679	-0.34225	 2.14011	 1.42980	-0.36685	 0.26766	-2.24794	-1.07908	 0.83011	 0.79499	-3.42799	-0.37800	 0.28762	 1.39273	-2.92268	-1.57722	 1.80725	 0.71330	 3.14247	-0.67908	 1.11511	-0.36942	-1.41330	-1.48115	 0.00884	 0.01082	-1.95999	 0.99451	
 17855	-0.75069	 0.38774	 0.30362	 0.18714	-1.31136	-0.32747	 0.13188	-0.23662	-1.70101	-0.32926	 2.15052	 1.42589	-0.33737	 0.27670	-2.23522	-1.08386	 0.85591	 0.79564	-3.08322	-0.87306	 0.34034	 1.39328	-1.86027	-3.10274	 1.82498	 0.71774	 3.15540	-0.67713	 1.09199	-0.33609	-1.39407	-1.48026	 0.00884	 0.01082	-1.94101	 0.99784	
 17856	-0.75069	 0.38774	 0.30362	 0.18714	-1.26593	-0.32407	 0.16976	-0.23360	-1.66441	-0.31277	 2.15443	 1.42025	-0.32261	 0.28121	-2.21224	-1.10339	 0.87766	 0.79276	-2.86785	-0.94955	 0.38127	 1.39815	-1.86027	-3.10274	 1.83960	 0.71670	 3.16456	-0.67594	 1.15746	-0.38532	-1.38447	-1.47980	 0.01090	 0.00927	-1.92332	 1.00098	
 17857	-0.75069	 0.38774	 0.20632	 0.22155	-1.24295	-0.32042	 0.18492	-0.23074	-1.64429	-0.30215	 2.15834	 1.41460	-0.31739	 0.29941	-2.21224	-1.10339	 0.89058	 0.79307	-2.86785	-0.94955	 0.40774	 1.39841	-0.87662	-4.51515	 1.84483	 0.71918	 3.17153	-0.67538	 1.15746	-0.38532	-1.37893	-1.47917	 0.01090	 0.00927	-1.90882	 1.00464	
 17858	-0.75069	 0.38774	 0.20632	 0.22155	-1.24206	-0.31256	 0.19254	-0.23344	-1.61840	-0.29974	 2.15834	 1.41460	-0.30260	 0.30394	-2.21476	-1.11336	 0.89944	 0.78985	-2.65081	-1.02664	 0.43168	 1.38969	 0.03912	-5.83006	 1.85213	 0.71866	 3.17733	-0.67559	 1.13434	-0.35198	-1.37340	-1.47856	 0.01090	 0.00927	-1.89823	 1.00772	
 17859	-0.75722	 0.28427	 0.20632	 0.22155	-1.24206	-0.31256	 0.17730	-0.22805	-1.60541	-0.29855	 2.15705	 1.41091	-0.29043	 0.29937	-2.22749	-1.10858	 0.90351	 0.79340	-2.65081	-1.02664	 0.44366	 1.38533	-0.64857	-5.58581	 1.85683	 0.71690	 3.18132	-0.67633	 1.13434	-0.35198	-1.37324	-1.47598	 0.01020	 0.00886	-1.89059	 1.00906	
 17860	-0.86381	 0.32429	 0.20170	 0.12438	-1.25938	-0.30606	 0.16214	-0.23090	-1.60181	-0.29383	 2.14794	 1.41851	-0.27824	 0.29479	-2.24271	-1.11375	 0.90351	 0.79340	-2.65081	-1.02664	 0.44366	 1.38533	-0.64857	-5.58581	 1.85213	 0.71866	 3.18257	-0.67750	 1.13434	-0.35198	-1.37039	-1.47439	 0.01020	 0.00886	-1.88736	 1.00847	
 17861	-0.86381	 0.32429	 0.20170	 0.12438	-1.27326	-0.30904	 0.13948	-0.23931	-1.60181	-0.29383	 2.14402	 1.42415	-0.29043	 0.29937	-2.26042	-1.12887	 0.90829	 0.78663	-2.86785	-0.94955	 0.44108	 1.37637	-0.87662	-4.51515	 1.85161	 0.71441	 3.18075	-0.67923	 1.13434	-0.35198	-1.36877	-1.47102	 0.00875	 0.00943	-1.88417	 1.00796	
 17862	-0.87028	 0.22155	 0.20170	 0.12438	-1.30008	-0.30716	 0.11686	-0.24773	-1.61118	-0.29031	 2.13748	 1.43914	-0.30260	 0.30394	-2.30099	-1.12452	 0.89944	 0.78985	-3.42799	-0.37800	 0.41714	 1.38509	-0.87662	-4.51515	 1.84377	 0.71069	 3.17631	-0.68093	 1.17675	-0.36791	-1.36736	-1.47021	 0.00875	 0.00943	-1.87654	 1.00929	
 17863	-0.87028	 0.22155	 0.10505	 0.15857	-1.31867	-0.31246	 0.08660	-0.24521	-1.61118	-0.29031	 2.13613	 1.45218	-0.30260	 0.30394	-2.33376	-1.14479	 0.89535	 0.78631	-3.42799	-0.37800	 0.41457	 1.37614	-1.56431	-4.27090	 1.83176	 0.71297	 3.17217	-0.68181	 1.17675	-0.36791	-1.36326	-1.47039	 0.00739	 0.00996	-1.86398	 1.01372	
 17864	-0.76408	 0.18168	 0.10505	 0.15857	-1.33249	-0.31545	 0.06404	-0.25362	-1.61118	-0.29031	 2.13998	 1.46329	-0.30260	 0.30394	-2.36399	-1.15511	 0.89128	 0.78277	-3.08322	-0.87306	 0.40004	 1.37154	-1.56431	-4.27090	 1.82446	 0.71350	 3.17027	-0.68160	 1.17675	-0.36791	-1.35913	-1.47058	 0.00739	 0.00996	-1.84912	 1.02305	
 17865	-0.76408	 0.18168	 0.10505	 0.15857	-1.34199	-0.32006	 0.05664	-0.26736	-1.61693	-0.28208	 2.14902	 1.47246	-0.29043	 0.29937	-2.38402	-1.18005	 0.88721	 0.77922	-3.08322	-0.87306	 0.39746	 1.36261	-1.56431	-4.27090	 1.81508	 0.71702	 3.17219	-0.68062	 1.13434	-0.35198	-1.35362	-1.46994	 0.00739	 0.00996	-1.83045	 1.03088	
 17866	-0.86381	 0.32429	 0.10505	 0.15857	-1.35062	-0.31682	 0.03405	-0.26754	-1.60397	-0.28088	 2.16457	 1.48339	-0.29043	 0.29937	-2.40158	-1.19504	 0.88313	 0.77569	-3.08322	-0.87306	 0.38553	 1.36696	-1.56431	-4.27090	 1.81039	 0.71878	 3.17393	-0.67816	 1.13434	-0.35198	-1.34683	-1.47108	 0.00875	 0.00943	-1.82117	 1.03808	
 17867	-0.86381	 0.32429	 0.10505	 0.15857	-1.35966	-0.31752	 0.02667	-0.28127	-1.60973	-0.27264	 2.18142	 1.49804	-0.29043	 0.29937	-2.41663	-1.20018	 0.87022	 0.77536	-2.86785	-0.94955	 0.37358	 1.37130	-1.56431	-4.27090	 1.80779	 0.71753	 3.17446	-0.67644	 1.13434	-0.35198	-1.34146	-1.47304	 0.00875	 0.00943	-1.82130	 1.04030	
